#     FILENAME=!Skynet_57528_lach-cc-77_20513_20923.cyb.fits
#     BASENAME=Skynet_57528_lach-cc-77_20513_20923
#     SRC_NAME=lach-cc-77
#     OBSERVER=ccmadison16_9505
#     DATE_OBS=2016-05-20T15:55:41.000
#        OBSID=20513
#      SCANNUM=20923
#          MJD=57528.6647
#          UTC=57429
#     SCANTYPE=track
#     DATAMODE=HIRES
#     TUNEFREQ=1420.0000
# Actual_FREQ1=1420.0000
# Actual_FREQ2=1420.0000
#    LO1Tuning=6870.000
#     RFFILTER=1355_1435
#        OBSBW=-15.6250
#        NCHAN=1024 
#        FOCUS=37.0709
#           RA=20:26:39.05
#          DEC=38:14:37.86
#      RA(hrs)=20.444200
#     DEC(deg)=38.243800
#    AZIM(deg)=301.671
#    ELEV(deg)=21.867
#     IFattens=11.00, 10.00
#      WARNING=None
#    TCAL_XL1=7.9635
#    TCAL_YR1=9.1340
#    TCAL_XL2=7.9635
#    TCAL_YR2=9.1340
#     TRX_XL1=11.7060
#     TRX_YR1=11.7060
#     TRX_XL2=11.7060
#     TRX_YR2=11.7060
#        TAVE=1.0000
#Freq1(MHz)          XL1          YR1  Freq2(MHz)          XL2          YR2 

   1427.81250     326.7526     274.3469   1427.81250     326.7526     274.3469
   1427.79724     326.6590     274.8282   1427.79724     326.6590     274.8282
   1427.78198     327.6102     275.5854   1427.78198     327.6102     275.5854
   1427.76672     327.9996     276.3094   1427.76672     327.9996     276.3094
   1427.75146     328.3312     277.1792   1427.75146     328.3312     277.1792
   1427.73621     329.7758     277.8329   1427.73621     329.7758     277.8329
   1427.72095     330.7757     278.5372   1427.72095     330.7757     278.5372
   1427.70569     331.0575     278.8753   1427.70569     331.0575     278.8753
   1427.69043     332.4445     280.6936   1427.69043     332.4445     280.6936
   1427.67517     333.0882     281.5076   1427.67517     333.0882     281.5076
   1427.65991     334.0503     282.0475   1427.65991     334.0503     282.0475
   1427.64465     335.0578     283.4102   1427.64465     335.0578     283.4102
   1427.62939     336.7972     284.1603   1427.62939     336.7972     284.1603
   1427.61414     337.3575     285.5462   1427.61414     337.3575     285.5462
   1427.59888     338.4595     286.2915   1427.59888     338.4595     286.2915
   1427.58362     339.8715     287.3335   1427.58362     339.8715     287.3335
   1427.56836     340.3944     289.0341   1427.56836     340.3944     289.0341
   1427.55310     342.6320     290.0289   1427.55310     342.6320     290.0289
   1427.53784     343.0511     290.9578   1427.53784     343.0511     290.9578
   1427.52258     345.2142     292.4114   1427.52258     345.2142     292.4114
   1427.50732     346.0705     294.1706   1427.50732     346.0705     294.1706
   1427.49207     347.6609     294.8240   1427.49207     347.6609     294.8240
   1427.47681     348.7393     296.7726   1427.47681     348.7393     296.7726
   1427.46155     351.0221     297.8664   1427.46155     351.0221     297.8664
   1427.44629     352.7447     299.1720   1427.44629     352.7447     299.1720
   1427.43103     354.6011     301.2742   1427.43103     354.6011     301.2742
   1427.41577     355.7564     302.7350   1427.41577     355.7564     302.7350
   1427.40051     357.6340     304.0194   1427.40051     357.6340     304.0194
   1427.38525     359.4554     305.7119   1427.38525     359.4554     305.7119
   1427.37000     361.0197     307.1401   1427.37000     361.0197     307.1401
   1427.35474     363.0075     309.1772   1427.35474     363.0075     309.1772
   1427.33948     364.7501     310.9237   1427.33948     364.7501     310.9237
   1427.32422     365.9584     312.5509   1427.32422     365.9584     312.5509
   1427.30896     368.4254     313.8224   1427.30896     368.4254     313.8224
   1427.29370     370.0564     316.2754   1427.29370     370.0564     316.2754
   1427.27844     372.8095     318.1994   1427.27844     372.8095     318.1994
   1427.26318     374.4703     319.9161   1427.26318     374.4703     319.9161
   1427.24792     376.5966     321.1815   1427.24792     376.5966     321.1815
   1427.23267     378.7555     323.4663   1427.23267     378.7555     323.4663
   1427.21741     380.6165     324.7221   1427.21741     380.6165     324.7221
   1427.20215     383.1195     326.4553   1427.20215     383.1195     326.4553
   1427.18689     384.8901     329.0379   1427.18689     384.8901     329.0379
   1427.17163     387.2358     330.7150   1427.17163     387.2358     330.7150
   1427.15637     389.7834     332.7826   1427.15637     389.7834     332.7826
   1427.14111     391.5845     334.7631   1427.14111     391.5845     334.7631
   1427.12585     394.0554     337.2788   1427.12585     394.0554     337.2788
   1427.11060     396.8431     339.2817   1427.11060     396.8431     339.2817
   1427.09534     398.4932     340.6579   1427.09534     398.4932     340.6579
   1427.08008     400.7672     343.2648   1427.08008     400.7672     343.2648
   1427.06482     403.6096     345.5259   1427.06482     403.6096     345.5259
   1427.04956     405.9330     346.8735   1427.04956     405.9330     346.8735
   1427.03430     408.3771     349.7795   1427.03430     408.3771     349.7795
   1427.01904     410.3984     352.1782   1427.01904     410.3984     352.1782
   1427.00378     413.3568     354.0926   1427.00378     413.3568     354.0926
   1426.98853     415.3882     356.3012   1426.98853     415.3882     356.3012
   1426.97327     417.9950     358.0321   1426.97327     417.9950     358.0321
   1426.95801     421.1860     359.9338   1426.95801     421.1860     359.9338
   1426.94275     422.6594     362.3978   1426.94275     422.6594     362.3978
   1426.92749     425.3276     364.8849   1426.92749     425.3276     364.8849
   1426.91223     428.4434     367.2256   1426.91223     428.4434     367.2256
   1426.89697     430.6155     369.0983   1426.89697     430.6155     369.0983
   1426.88171     433.5628     371.5392   1426.88171     433.5628     371.5392
   1426.86646     436.3739     373.8618   1426.86646     436.3739     373.8618
   1426.85120     439.2625     376.1453   1426.85120     439.2625     376.1453
   1426.83594     441.1519     377.9641   1426.83594     441.1519     377.9641
   1426.82068     444.8817     380.3991   1426.82068     444.8817     380.3991
   1426.80542     446.7067     382.2488   1426.80542     446.7067     382.2488
   1426.79016     449.4018     384.8147   1426.79016     449.4018     384.8147
   1426.77490     452.0697     387.3349   1426.77490     452.0697     387.3349
   1426.75964     455.0314     389.6242   1426.75964     455.0314     389.6242
   1426.74438     457.6795     391.6082   1426.74438     457.6795     391.6082
   1426.72913     459.5848     394.3540   1426.72913     459.5848     394.3540
   1426.71387     463.3105     396.0910   1426.71387     463.3105     396.0910
   1426.69861     465.3734     399.0161   1426.69861     465.3734     399.0161
   1426.68335     467.3580     400.3034   1426.68335     467.3580     400.3034
   1426.66809     470.5379     402.5314   1426.66809     470.5379     402.5314
   1426.65283     473.4545     406.1712   1426.65283     473.4545     406.1712
   1426.63757     476.7710     407.5388   1426.63757     476.7710     407.5388
   1426.62231     481.6586     409.3022   1426.62231     481.6586     409.3022
   1426.60706     482.3661     412.6448   1426.60706     482.3661     412.6448
   1426.59180     483.4840     415.0556   1426.59180     483.4840     415.0556
   1426.57654     487.4063     416.3750   1426.57654     487.4063     416.3750
   1426.56128     490.3052     417.9163   1426.56128     490.3052     417.9163
   1426.54602     491.6338     421.2465   1426.54602     491.6338     421.2465
   1426.53076     495.0022     423.5418   1426.53076     495.0022     423.5418
   1426.51550     497.5023     424.7472   1426.51550     497.5023     424.7472
   1426.50024     500.1882     427.1467   1426.50024     500.1882     427.1467
   1426.48499     503.3883     429.2733   1426.48499     503.3883     429.2733
   1426.46973     505.3669     432.0816   1426.46973     505.3669     432.0816
   1426.45447     507.8532     434.0222   1426.45447     507.8532     434.0222
   1426.43921     511.4749     436.1639   1426.43921     511.4749     436.1639
   1426.42395     513.9289     437.3588   1426.42395     513.9289     437.3588
   1426.40869     515.8716     439.7835   1426.40869     515.8716     439.7835
   1426.39343     518.5343     442.2515   1426.39343     518.5343     442.2515
   1426.37817     520.8240     443.9804   1426.37817     520.8240     443.9804
   1426.36292     523.6880     447.0392   1426.36292     523.6880     447.0392
   1426.34766     526.3997     448.2092   1426.34766     526.3997     448.2092
   1426.33240     529.2235     450.0141   1426.33240     529.2235     450.0141
   1426.31714     530.6901     452.8768   1426.31714     530.6901     452.8768
   1426.30188     533.3408     453.7879   1426.30188     533.3408     453.7879
   1426.28662     537.0436     456.0713   1426.28662     537.0436     456.0713
   1426.27136     538.0354     458.8712   1426.27136     538.0354     458.8712
   1426.25610     541.5333     460.1426   1426.25610     541.5333     460.1426
   1426.24084     544.4817     461.8290   1426.24084     544.4817     461.8290
   1426.22559     546.0187     464.3063   1426.22559     546.0187     464.3063
   1426.21033     548.0862     465.8532   1426.21033     548.0862     465.8532
   1426.19507     551.5582     468.0480   1426.19507     551.5582     468.0480
   1426.17981     554.3630     469.9944   1426.17981     554.3630     469.9944
   1426.16455     555.7487     471.7495   1426.16455     555.7487     471.7495
   1426.14929     558.5399     473.5973   1426.14929     558.5399     473.5973
   1426.13403     560.5377     474.9634   1426.13403     560.5377     474.9634
   1426.11877     563.2491     477.1817   1426.11877     563.2491     477.1817
   1426.10352     564.8489     477.8343   1426.10352     564.8489     477.8343
   1426.08826     567.7255     480.3237   1426.08826     567.7255     480.3237
   1426.07300     569.0129     482.0980   1426.07300     569.0129     482.0980
   1426.05774     572.5345     483.6880   1426.05774     572.5345     483.6880
   1426.04248     573.4417     485.3354   1426.04248     573.4417     485.3354
   1426.02722     575.8885     487.1224   1426.02722     575.8885     487.1224
   1426.01196     577.9496     488.7072   1426.01196     577.9496     488.7072
   1425.99670     579.4611     489.6263   1425.99670     579.4611     489.6263
   1425.98145     581.5804     491.8096   1425.98145     581.5804     491.8096
   1425.96619     583.9539     493.2805   1425.96619     583.9539     493.2805
   1425.95093     586.3063     495.0857   1425.95093     586.3063     495.0857
   1425.93567     588.9620     496.9088   1425.93567     588.9620     496.9088
   1425.92041     591.3134     498.2514   1425.92041     591.3134     498.2514
   1425.90515     592.0574     499.7629   1425.90515     592.0574     499.7629
   1425.88989     594.6583     501.6312   1425.88989     594.6583     501.6312
   1425.87463     596.6646     503.2657   1425.87463     596.6646     503.2657
   1425.85938     597.2743     504.1349   1425.85938     597.2743     504.1349
   1425.84412     599.8910     505.5245   1425.84412     599.8910     505.5245
   1425.82886     602.0688     507.7658   1425.82886     602.0688     507.7658
   1425.81360     602.3239     508.4168   1425.81360     602.3239     508.4168
   1425.79834     604.7745     509.5802   1425.79834     604.7745     509.5802
   1425.78308     606.7357     511.2516   1425.78308     606.7357     511.2516
   1425.76782     608.0659     512.8689   1425.76782     608.0659     512.8689
   1425.75256     609.3778     513.3193   1425.75256     609.3778     513.3193
   1425.73730     611.5587     515.5720   1425.73730     611.5587     515.5720
   1425.72205     613.2107     517.4131   1425.72205     613.2107     517.4131
   1425.70679     615.5438     517.2236   1425.70679     615.5438     517.2236
   1425.69153     616.6318     518.8051   1425.69153     616.6318     518.8051
   1425.67627     617.7561     520.7651   1425.67627     617.7561     520.7651
   1425.66101     619.5684     521.4050   1425.66101     619.5684     521.4050
   1425.64575     621.5091     523.0801   1425.64575     621.5091     523.0801
   1425.63049     622.8044     524.2213   1425.63049     622.8044     524.2213
   1425.61523     624.4299     525.7669   1425.61523     624.4299     525.7669
   1425.59998     624.6676     526.3004   1425.59998     624.6676     526.3004
   1425.58472     626.7327     528.5823   1425.58472     626.7327     528.5823
   1425.56946     628.3995     529.1666   1425.56946     628.3995     529.1666
   1425.55420     629.2478     529.7941   1425.55420     629.2478     529.7941
   1425.53894     630.9568     530.6733   1425.53894     630.9568     530.6733
   1425.52368     630.4989     531.4041   1425.52368     630.4989     531.4041
   1425.50842     633.6221     533.4379   1425.50842     633.6221     533.4379
   1425.49316     634.4999     534.4053   1425.49316     634.4999     534.4053
   1425.47791     635.4111     535.7265   1425.47791     635.4111     535.7265
   1425.46265     637.5875     536.7569   1425.46265     637.5875     536.7569
   1425.44739     638.2790     537.6420   1425.44739     638.2790     537.6420
   1425.43213     638.7594     538.8516   1425.43213     638.7594     538.8516
   1425.41687     641.4497     539.2452   1425.41687     641.4497     539.2452
   1425.40161     641.3911     540.1225   1425.40161     641.3911     540.1225
   1425.38635     641.9020     541.7166   1425.38635     641.9020     541.7166
   1425.37109     643.0568     543.1573   1425.37109     643.0568     543.1573
   1425.35583     643.7238     543.7932   1425.35583     643.7238     543.7932
   1425.34058     646.0004     545.0872   1425.34058     646.0004     545.0872
   1425.32532     647.0754     545.5429   1425.32532     647.0754     545.5429
   1425.31006     648.2512     546.9308   1425.31006     648.2512     546.9308
   1425.29480     648.3405     547.0332   1425.29480     648.3405     547.0332
   1425.27954     649.6703     548.2630   1425.27954     649.6703     548.2630
   1425.26428     650.4832     548.5746   1425.26428     650.4832     548.5746
   1425.24902     651.5863     550.3683   1425.24902     651.5863     550.3683
   1425.23376     652.2673     550.2046   1425.23376     652.2673     550.2046
   1425.21851     651.4745     551.3789   1425.21851     651.4745     551.3789
   1425.20325     652.7158     551.9526   1425.20325     652.7158     551.9526
   1425.18799     653.6765     553.1469   1425.18799     653.6765     553.1469
   1425.17273     653.7006     553.9876   1425.17273     653.7006     553.9876
   1425.15747     656.7436     554.4386   1425.15747     656.7436     554.4386
   1425.14221     654.8977     556.4061   1425.14221     654.8977     556.4061
   1425.12695     656.7668     556.2199   1425.12695     656.7668     556.2199
   1425.11169     657.6730     556.5530   1425.11169     657.6730     556.5530
   1425.09644     657.6500     558.7650   1425.09644     657.6500     558.7650
   1425.08118     658.3574     559.1721   1425.08118     658.3574     559.1721
   1425.06592     658.7691     559.8448   1425.06592     658.7691     559.8448
   1425.05066     659.2225     560.7216   1425.05066     659.2225     560.7216
   1425.03540     661.4891     561.3252   1425.03540     661.4891     561.3252
   1425.02014     660.1149     561.8344   1425.02014     660.1149     561.8344
   1425.00488     660.2469     561.9466   1425.00488     660.2469     561.9466
   1424.98962     660.9977     563.2563   1424.98962     660.9977     563.2563
   1424.97437     662.2551     563.8696   1424.97437     662.2551     563.8696
   1424.95911     662.7147     564.9158   1424.95911     662.7147     564.9158
   1424.94385     662.9667     566.0233   1424.94385     662.9667     566.0233
   1424.92859     663.5973     566.9196   1424.92859     663.5973     566.9196
   1424.91333     663.7357     567.5031   1424.91333     663.7357     567.5031
   1424.89807     663.9835     568.0591   1424.89807     663.9835     568.0591
   1424.88281     663.4343     567.8384   1424.88281     663.4343     567.8384
   1424.86755     664.4108     568.6374   1424.86755     664.4108     568.6374
   1424.85229     664.0695     570.4903   1424.85229     664.0695     570.4903
   1424.83704     664.5580     569.9478   1424.83704     664.5580     569.9478
   1424.82178     665.4368     571.3876   1424.82178     665.4368     571.3876
   1424.80652     665.4395     571.8672   1424.80652     665.4395     571.8672
   1424.79126     664.9158     571.5134   1424.79126     664.9158     571.5134
   1424.77600     665.6108     572.5825   1424.77600     665.6108     572.5825
   1424.76074     665.0137     573.1610   1424.76074     665.0137     573.1610
   1424.74548     665.8203     574.2549   1424.74548     665.8203     574.2549
   1424.73022     665.7454     575.5778   1424.73022     665.7454     575.5778
   1424.71497     666.3209     574.5437   1424.71497     666.3209     574.5437
   1424.69971     667.2312     574.5346   1424.69971     667.2312     574.5346
   1424.68445     666.3511     575.7194   1424.68445     666.3511     575.7194
   1424.66919     667.0568     576.5040   1424.66919     667.0568     576.5040
   1424.65393     667.1581     577.6851   1424.65393     667.1581     577.6851
   1424.63867     667.2234     578.2988   1424.63867     667.2234     578.2988
   1424.62341     667.1666     579.5640   1424.62341     667.1666     579.5640
   1424.60815     667.3312     578.7915   1424.60815     667.3312     578.7915
   1424.59290     667.5510     579.7376   1424.59290     667.5510     579.7376
   1424.57764     666.7928     581.4206   1424.57764     666.7928     581.4206
   1424.56238     666.2525     580.7661   1424.56238     666.2525     580.7661
   1424.54712     667.6351     581.4738   1424.54712     667.6351     581.4738
   1424.53186     667.4623     582.0037   1424.53186     667.4623     582.0037
   1424.51660     667.7286     581.8326   1424.51660     667.7286     581.8326
   1424.50134     667.7191     583.2080   1424.50134     667.7191     583.2080
   1424.48608     666.9265     583.4218   1424.48608     666.9265     583.4218
   1424.47083     666.7070     583.7919   1424.47083     666.7070     583.7919
   1424.45557     668.3130     586.0017   1424.45557     668.3130     586.0017
   1424.44031     667.5223     585.6212   1424.44031     667.5223     585.6212
   1424.42505     666.8212     585.5579   1424.42505     666.8212     585.5579
   1424.40979     667.2714     586.3054   1424.40979     667.2714     586.3054
   1424.39453     667.9319     587.1125   1424.39453     667.9319     587.1125
   1424.37927     668.4096     587.6740   1424.37927     668.4096     587.6740
   1424.36401     668.2410     588.0981   1424.36401     668.2410     588.0981
   1424.34875     665.9828     589.1412   1424.34875     665.9828     589.1412
   1424.33350     667.1544     588.9120   1424.33350     667.1544     588.9120
   1424.31824     667.0902     589.5468   1424.31824     667.0902     589.5468
   1424.30298     667.5612     590.8659   1424.30298     667.5612     590.8659
   1424.28772     666.7445     590.4212   1424.28772     666.7445     590.4212
   1424.27246     666.5845     590.8652   1424.27246     666.5845     590.8652
   1424.25720     665.1478     591.2578   1424.25720     665.1478     591.2578
   1424.24194     667.0710     592.2166   1424.24194     667.0710     592.2166
   1424.22668     665.5002     592.7245   1424.22668     665.5002     592.7245
   1424.21143     666.4886     593.0256   1424.21143     666.4886     593.0256
   1424.19617     666.3393     594.1466   1424.19617     666.3393     594.1466
   1424.18091     666.6470     594.4844   1424.18091     666.6470     594.4844
   1424.16565     666.0768     595.7316   1424.16565     666.0768     595.7316
   1424.15039     666.3465     595.6517   1424.15039     666.3465     595.6517
   1424.13513     665.9103     596.7710   1424.13513     665.9103     596.7710
   1424.11987     666.0114     595.9241   1424.11987     666.0114     595.9241
   1424.10461     666.1466     597.9840   1424.10461     666.1466     597.9840
   1424.08936     666.2203     597.2502   1424.08936     666.2203     597.2502
   1424.07410     665.5537     598.5959   1424.07410     665.5537     598.5959
   1424.05884     664.7162     597.7338   1424.05884     664.7162     597.7338
   1424.04358     665.2095     598.4691   1424.04358     665.2095     598.4691
   1424.02832     664.7311     599.2341   1424.02832     664.7311     599.2341
   1424.01306     664.7772     600.0361   1424.01306     664.7772     600.0361
   1423.99780     665.2991     600.6940   1423.99780     665.2991     600.6940
   1423.98254     664.8607     600.9777   1423.98254     664.8607     600.9777
   1423.96729     663.1446     602.0266   1423.96729     663.1446     602.0266
   1423.95203     663.2018     601.8844   1423.95203     663.2018     601.8844
   1423.93677     663.5712     603.3052   1423.93677     663.5712     603.3052
   1423.92151     663.8645     603.5784   1423.92151     663.8645     603.5784
   1423.90625     663.5438     602.8792   1423.90625     663.5438     602.8792
   1423.89099     663.6493     604.3361   1423.89099     663.6493     604.3361
   1423.87573     664.5034     604.8316   1423.87573     664.5034     604.8316
   1423.86047     663.6251     605.5784   1423.86047     663.6251     605.5784
   1423.84521     662.3877     606.0559   1423.84521     662.3877     606.0559
   1423.82996     662.9171     606.0450   1423.82996     662.9171     606.0450
   1423.81470     663.0203     606.5110   1423.81470     663.0203     606.5110
   1423.79944     662.7265     606.9193   1423.79944     662.7265     606.9193
   1423.78418     661.0507     607.1687   1423.78418     661.0507     607.1687
   1423.76892     661.4836     607.5120   1423.76892     661.4836     607.5120
   1423.75366     662.2933     609.1105   1423.75366     662.2933     609.1105
   1423.73840     661.8480     609.3777   1423.73840     661.8480     609.3777
   1423.72314     661.7085     609.6089   1423.72314     661.7085     609.6089
   1423.70789     661.6608     609.6084   1423.70789     661.6608     609.6084
   1423.69263     661.7863     609.6330   1423.69263     661.7863     609.6330
   1423.67737     661.5563     609.3292   1423.67737     661.5563     609.3292
   1423.66211     660.7243     611.7630   1423.66211     660.7243     611.7630
   1423.64685     660.3860     611.9019   1423.64685     660.3860     611.9019
   1423.63159     660.6395     611.9567   1423.63159     660.6395     611.9567
   1423.61633     659.8783     611.9664   1423.61633     659.8783     611.9664
   1423.60107     661.1151     612.8859   1423.60107     661.1151     612.8859
   1423.58582     659.6733     613.5703   1423.58582     659.6733     613.5703
   1423.57056     659.7255     613.8710   1423.57056     659.7255     613.8710
   1423.55530     659.1921     614.2853   1423.55530     659.1921     614.2853
   1423.54004     658.4307     614.1960   1423.54004     658.4307     614.1960
   1423.52478     659.9423     614.6075   1423.52478     659.9423     614.6075
   1423.50952     660.0455     614.8843   1423.50952     660.0455     614.8843
   1423.49426     658.3805     615.3196   1423.49426     658.3805     615.3196
   1423.47900     659.1879     615.6956   1423.47900     659.1879     615.6956
   1423.46375     658.8035     615.5334   1423.46375     658.8035     615.5334
   1423.44849     658.8442     617.0421   1423.44849     658.8442     617.0421
   1423.43323     659.2601     616.6164   1423.43323     659.2601     616.6164
   1423.41797     658.4885     616.3511   1423.41797     658.4885     616.3511
   1423.40271     658.1877     617.0214   1423.40271     658.1877     617.0214
   1423.38745     657.7780     617.5801   1423.38745     657.7780     617.5801
   1423.37219     658.1727     617.4001   1423.37219     658.1727     617.4001
   1423.35693     658.1078     618.9271   1423.35693     658.1078     618.9271
   1423.34167     657.7047     617.4045   1423.34167     657.7047     617.4045
   1423.32642     658.6895     617.0914   1423.32642     658.6895     617.0914
   1423.31116     657.6113     618.2759   1423.31116     657.6113     618.2759
   1423.29590     656.4673     617.7629   1423.29590     656.4673     617.7629
   1423.28064     655.9077     618.5428   1423.28064     655.9077     618.5428
   1423.26538     656.3558     619.4404   1423.26538     656.3558     619.4404
   1423.25012     656.8925     618.5227   1423.25012     656.8925     618.5227
   1423.23486     656.5334     619.6129   1423.23486     656.5334     619.6129
   1423.21960     655.8243     619.5947   1423.21960     655.8243     619.5947
   1423.20435     656.5438     619.8881   1423.20435     656.5438     619.8881
   1423.18909     656.8132     619.4866   1423.18909     656.8132     619.4866
   1423.17383     656.6594     619.7409   1423.17383     656.6594     619.7409
   1423.15857     655.9662     619.9504   1423.15857     655.9662     619.9504
   1423.14331     654.8347     620.9091   1423.14331     654.8347     620.9091
   1423.12805     654.9774     620.1793   1423.12805     654.9774     620.1793
   1423.11279     654.2827     619.7645   1423.11279     654.2827     619.7645
   1423.09753     654.7786     620.6843   1423.09753     654.7786     620.6843
   1423.08228     654.5104     619.5170   1423.08228     654.5104     619.5170
   1423.06702     654.1788     619.4908   1423.06702     654.1788     619.4908
   1423.05176     653.2024     619.1094   1423.05176     653.2024     619.1094
   1423.03650     654.4868     619.7766   1423.03650     654.4868     619.7766
   1423.02124     653.9059     619.1074   1423.02124     653.9059     619.1074
   1423.00598     653.5338     619.4655   1423.00598     653.5338     619.4655
   1422.99072     653.0818     619.1276   1422.99072     653.0818     619.1276
   1422.97546     651.9281     618.9285   1422.97546     651.9281     618.9285
   1422.96021     652.1188     619.5027   1422.96021     652.1188     619.5027
   1422.94495     653.0601     618.8412   1422.94495     653.0601     618.8412
   1422.92969     652.1371     618.5699   1422.92969     652.1371     618.5699
   1422.91443     651.7988     618.5486   1422.91443     651.7988     618.5486
   1422.89917     651.7177     619.3841   1422.89917     651.7177     619.3841
   1422.88391     652.4425     618.7234   1422.88391     652.4425     618.7234
   1422.86865     651.2372     617.5628   1422.86865     651.2372     617.5628
   1422.85339     650.9730     617.1225   1422.85339     650.9730     617.1225
   1422.83813     651.3488     616.9579   1422.83813     651.3488     616.9579
   1422.82288     650.9705     616.2449   1422.82288     650.9705     616.2449
   1422.80762     649.5170     616.5228   1422.80762     649.5170     616.5228
   1422.79236     649.7316     615.7542   1422.79236     649.7316     615.7542
   1422.77710     650.4421     615.3378   1422.77710     650.4421     615.3378
   1422.76184     649.5318     614.6972   1422.76184     649.5318     614.6972
   1422.74658     650.2830     615.5115   1422.74658     650.2830     615.5115
   1422.73132     649.7791     614.5349   1422.73132     649.7791     614.5349
   1422.71606     650.0457     614.5234   1422.71606     650.0457     614.5234
   1422.70081     649.2252     613.3583   1422.70081     649.2252     613.3583
   1422.68555     648.7288     613.0311   1422.68555     648.7288     613.0311
   1422.67029     650.0848     612.6426   1422.67029     650.0848     612.6426
   1422.65503     648.2988     611.6071   1422.65503     648.2988     611.6071
   1422.63977     648.3853     611.4823   1422.63977     648.3853     611.4823
   1422.62451     647.9545     610.6609   1422.62451     647.9545     610.6609
   1422.60925     648.0251     610.8524   1422.60925     648.0251     610.8524
   1422.59399     647.9554     610.0206   1422.59399     647.9554     610.0206
   1422.57874     647.9640     610.5279   1422.57874     647.9640     610.5279
   1422.56348     646.6459     608.5961   1422.56348     646.6459     608.5961
   1422.54822     646.6500     607.4528   1422.54822     646.6500     607.4528
   1422.53296     647.4564     607.0361   1422.53296     647.4564     607.0361
   1422.51770     646.2631     605.3260   1422.51770     646.2631     605.3260
   1422.50244     646.4395     605.8766   1422.50244     646.4395     605.8766
   1422.48718     646.5627     604.6455   1422.48718     646.5627     604.6455
   1422.47192     647.1112     604.2037   1422.47192     647.1112     604.2037
   1422.45667     645.7786     603.3127   1422.45667     645.7786     603.3127
   1422.44141     645.4290     602.4311   1422.44141     645.4290     602.4311
   1422.42615     644.7793     601.6537   1422.42615     644.7793     601.6537
   1422.41089     644.5256     601.1161   1422.41089     644.5256     601.1161
   1422.39563     644.2014     599.8140   1422.39563     644.2014     599.8140
   1422.38037     643.5406     598.9700   1422.38037     643.5406     598.9700
   1422.36511     644.2155     597.6152   1422.36511     644.2155     597.6152
   1422.34985     643.8457     597.0095   1422.34985     643.8457     597.0095
   1422.33459     642.8881     596.4202   1422.33459     642.8881     596.4202
   1422.31934     643.0453     594.9775   1422.31934     643.0453     594.9775
   1422.30408     644.1197     594.5131   1422.30408     644.1197     594.5131
   1422.28882     643.5804     594.0787   1422.28882     643.5804     594.0787
   1422.27356     643.0614     592.1014   1422.27356     643.0614     592.1014
   1422.25830     642.4102     591.7134   1422.25830     642.4102     591.7134
   1422.24304     642.2595     589.9445   1422.24304     642.2595     589.9445
   1422.22778     640.9999     589.5020   1422.22778     640.9999     589.5020
   1422.21252     641.3836     587.5489   1422.21252     641.3836     587.5489
   1422.19727     641.3638     586.9683   1422.19727     641.3638     586.9683
   1422.18201     642.0443     585.9239   1422.18201     642.0443     585.9239
   1422.16675     641.4180     584.8465   1422.16675     641.4180     584.8465
   1422.15149     641.1013     583.5726   1422.15149     641.1013     583.5726
   1422.13623     641.5328     582.6534   1422.13623     641.5328     582.6534
   1422.12097     640.4413     581.6807   1422.12097     640.4413     581.6807
   1422.10571     639.4263     579.8422   1422.10571     639.4263     579.8422
   1422.09045     640.5254     578.8645   1422.09045     640.5254     578.8645
   1422.07520     638.5677     578.2717   1422.07520     638.5677     578.2717
   1422.05994     638.8774     576.8466   1422.05994     638.8774     576.8466
   1422.04468     639.1368     575.0226   1422.04468     639.1368     575.0226
   1422.02942     639.7636     574.8034   1422.02942     639.7636     574.8034
   1422.01416     638.7017     572.0907   1422.01416     638.7017     572.0907
   1421.99890     638.0464     571.7268   1421.99890     638.0464     571.7268
   1421.98364     638.1679     571.0204   1421.98364     638.1679     571.0204
   1421.96838     638.2117     568.9920   1421.96838     638.2117     568.9920
   1421.95312     637.1715     567.8942   1421.95312     637.1715     567.8942
   1421.93787     638.1769     565.9152   1421.93787     638.1769     565.9152
   1421.92261     636.9583     564.9631   1421.92261     636.9583     564.9631
   1421.90735     636.6764     563.9111   1421.90735     636.6764     563.9111
   1421.89209     636.0939     562.3605   1421.89209     636.0939     562.3605
   1421.87683     637.8924     561.6817   1421.87683     637.8924     561.6817
   1421.86157     636.0457     560.1895   1421.86157     636.0457     560.1895
   1421.84631     636.1484     557.9606   1421.84631     636.1484     557.9606
   1421.83105     635.9570     556.9281   1421.83105     635.9570     556.9281
   1421.81580     635.5673     555.5482   1421.81580     635.5673     555.5482
   1421.80054     635.6262     553.1220   1421.80054     635.6262     553.1220
   1421.78528     634.6492     551.9194   1421.78528     634.6492     551.9194
   1421.77002     633.1713     551.6371   1421.77002     633.1713     551.6371
   1421.75476     634.6583     549.8585   1421.75476     634.6583     549.8585
   1421.73950     634.0768     548.3886   1421.73950     634.0768     548.3886
   1421.72424     633.9738     546.7410   1421.72424     633.9738     546.7410
   1421.70898     634.9371     545.6350   1421.70898     634.9371     545.6350
   1421.69373     633.2910     544.0943   1421.69373     633.2910     544.0943
   1421.67847     632.8416     543.0524   1421.67847     632.8416     543.0524
   1421.66321     633.3384     541.5475   1421.66321     633.3384     541.5475
   1421.64795     632.8508     538.8976   1421.64795     632.8508     538.8976
   1421.63269     632.9312     539.5112   1421.63269     632.9312     539.5112
   1421.61743     632.3902     537.4445   1421.61743     632.3902     537.4445
   1421.60217     632.7860     535.5134   1421.60217     632.7860     535.5134
   1421.58691     632.5597     534.0782   1421.58691     632.5597     534.0782
   1421.57166     631.8669     531.9663   1421.57166     631.8669     531.9663
   1421.55640     630.8278     531.8655   1421.55640     630.8278     531.8655
   1421.54114     631.4332     528.8528   1421.54114     631.4332     528.8528
   1421.52588     630.6059     528.2783   1421.52588     630.6059     528.2783
   1421.51062     630.3716     525.6852   1421.51062     630.3716     525.6852
   1421.49536     630.2794     525.5450   1421.49536     630.2794     525.5450
   1421.48010     630.6491     523.3725   1421.48010     630.6491     523.3725
   1421.46484     630.8070     521.9100   1421.46484     630.8070     521.9100
   1421.44958     630.7558     520.6118   1421.44958     630.7558     520.6118
   1421.43433     630.7660     519.2103   1421.43433     630.7660     519.2103
   1421.41907     629.4261     517.7439   1421.41907     629.4261     517.7439
   1421.40381     629.6243     516.4686   1421.40381     629.6243     516.4686
   1421.38855     628.5302     515.5262   1421.38855     628.5302     515.5262
   1421.37329     628.7294     515.0126   1421.37329     628.7294     515.0126
   1421.35803     629.8279     512.0191   1421.35803     629.8279     512.0191
   1421.34277     630.0508     511.7911   1421.34277     630.0508     511.7911
   1421.32751     628.8439     510.0215   1421.32751     628.8439     510.0215
   1421.31226     629.5059     508.2165   1421.31226     629.5059     508.2165
   1421.29700     629.4654     506.0198   1421.29700     629.4654     506.0198
   1421.28174     628.6451     505.6411   1421.28174     628.6451     505.6411
   1421.26648     629.6891     504.3727   1421.26648     629.6891     504.3727
   1421.25122     629.9165     504.4236   1421.25122     629.9165     504.4236
   1421.23596     631.2609     503.6492   1421.23596     631.2609     503.6492
   1421.22070     631.7723     503.6663   1421.22070     631.7723     503.6663
   1421.20544     634.5002     503.2853   1421.20544     634.5002     503.2853
   1421.19019     635.1952     503.0700   1421.19019     635.1952     503.0700
   1421.17493     636.6963     502.1353   1421.17493     636.6963     502.1353
   1421.15967     637.3540     501.5632   1421.15967     637.3540     501.5632
   1421.14441     638.3761     501.7937   1421.14441     638.3761     501.7937
   1421.12915     639.4824     500.3310   1421.12915     639.4824     500.3310
   1421.11389     641.1421     500.2163   1421.11389     641.1421     500.2163
   1421.09863     643.8295     500.4600   1421.09863     643.8295     500.4600
   1421.08337     646.8677     501.5644   1421.08337     646.8677     501.5644
   1421.06812     651.8155     503.5106   1421.06812     651.8155     503.5106
   1421.05286     660.1703     509.3193   1421.05286     660.1703     509.3193
   1421.03760     673.0037     518.3456   1421.03760     673.0037     518.3456
   1421.02234     697.8126     535.4287   1421.02234     697.8126     535.4287
   1421.00708     744.4963     566.2136   1421.00708     744.4963     566.2136
   1420.99182     831.0640     629.3300   1420.99182     831.0640     629.3300
   1420.97656    1018.9200     763.3639   1420.97656    1018.9200     763.3639
   1420.96130    1264.6627     944.9448   1420.96130    1264.6627     944.9448
   1420.94604    1451.0304    1076.2513   1420.94604    1451.0304    1076.2513
   1420.93079    1484.0785    1099.5919   1420.93079    1484.0785    1099.5919
   1420.91553    1304.1254     962.4738   1420.91553    1304.1254     962.4738
   1420.90027    1139.5730     845.5270   1420.90027    1139.5730     845.5270
   1420.88501    1152.4764     851.1287   1420.88501    1152.4764     851.1287
   1420.86975    1261.0996     922.4965   1420.86975    1261.0996     922.4965
   1420.85449    1288.4780     940.2217   1420.85449    1288.4780     940.2217
   1420.83923    1183.1233     863.7410   1420.83923    1183.1233     863.7410
   1420.82397    1012.1751     742.1311   1420.82397    1012.1751     742.1311
   1420.80872     929.5906     682.1654   1420.80872     929.5906     682.1654
   1420.79346     904.6100     661.5284   1420.79346     904.6100     661.5284
   1420.77820     906.4046     660.1562   1420.77820     906.4046     660.1562
   1420.76294     944.4664     682.8954   1420.76294     944.4664     682.8954
   1420.74768    1053.6855     759.7696   1420.74768    1053.6855     759.7696
   1420.73242    1279.7538     915.2375   1420.73242    1279.7538     915.2375
   1420.71716    1493.2131    1058.8588   1420.71716    1493.2131    1058.8588
   1420.70190    1480.7537    1048.7491   1420.70190    1480.7537    1048.7491
   1420.68665    1369.3214     972.7290   1420.68665    1369.3214     972.7290
   1420.67139    1417.2072    1004.2128   1420.67139    1417.2072    1004.2128
   1420.65613    1452.1216    1025.6255   1420.65613    1452.1216    1025.6255
   1420.64087    1411.8544     995.6021   1420.64087    1411.8544     995.6021
   1420.62561    1423.4893    1001.9066   1420.62561    1423.4893    1001.9066
   1420.61035    1658.3121    1160.8842   1420.61035    1658.3121    1160.8842
   1420.59509    2009.9139    1396.6129   1420.59509    2009.9139    1396.6129
   1420.57983    2121.2327    1469.8013   1420.57983    2121.2327    1469.8013
   1420.56458    2083.7817    1441.4191   1420.56458    2083.7817    1441.4191
   1420.54932    2112.8333    1458.0591   1420.54932    2112.8333    1458.0591
   1420.53406    2079.7219    1430.1184   1420.53406    2079.7219    1430.1184
   1420.51880    1889.1101    1301.7610   1420.51880    1889.1101    1301.7610
   1420.50354    1445.9612     995.6278   1420.50354    1445.9612     995.6278
   1420.48828    1081.7361     748.6272   1420.48828    1081.7361     748.6272
   1420.47302     866.1033     602.3959   1420.47302     866.1033     602.3959
   1420.45776     753.9999     526.2137   1420.45776     753.9999     526.2137
   1420.44250     697.3197     487.7773   1420.44250     697.3197     487.7773
   1420.42725     666.5846     465.6086   1420.42725     666.5846     465.6086
   1420.41199     649.6460     452.8033   1420.41199     649.6460     452.8033
   1420.39673     639.1478     445.5049   1420.39673     639.1478     445.5049
   1420.38147     634.9407     441.1067   1420.38147     634.9407     441.1067
   1420.36621     631.9403     437.8180   1420.36621     631.9403     437.8180
   1420.35095     629.6465     436.1657   1420.35095     629.6465     436.1657
   1420.33569     629.8561     434.5001   1420.33569     629.8561     434.5001
   1420.32043     629.1832     433.3827   1420.32043     629.1832     433.3827
   1420.30518     628.1875     431.8994   1420.30518     628.1875     431.8994
   1420.28992     628.5934     431.9613   1420.28992     628.5934     431.9613
   1420.27466     630.0854     430.2592   1420.27466     630.0854     430.2592
   1420.25940     627.8599     429.4000   1420.25940     627.8599     429.4000
   1420.24414     627.2217     428.6509   1420.24414     627.2217     428.6509
   1420.22888     627.1709     427.3005   1420.22888     627.1709     427.3005
   1420.21362     625.6052     424.9880   1420.21362     625.6052     424.9880
   1420.19836     623.3242     423.2941   1420.19836     623.3242     423.2941
   1420.18311     621.7830     421.5883   1420.18311     621.7830     421.5883
   1420.16785     621.6886     420.1108   1420.16785     621.6886     420.1108
   1420.15259     622.8492     419.5873   1420.15259     622.8492     419.5873
   1420.13733     620.9147     418.2090   1420.13733     620.9147     418.2090
   1420.12207     620.6829     416.9348   1420.12207     620.6829     416.9348
   1420.10681     620.4033     415.2910   1420.10681     620.4033     415.2910
   1420.09155     619.9966     415.0988   1420.09155     619.9966     415.0988
   1420.07629     618.9669     413.9652   1420.07629     618.9669     413.9652
   1420.06104     619.7607     413.5508   1420.06104     619.7607     413.5508
   1420.04578     619.4830     412.4918   1420.04578     619.4830     412.4918
   1420.03052     619.9893     411.8617   1420.03052     619.9893     411.8617
   1420.01526     619.9058     412.0999   1420.01526     619.9058     412.0999
   1420.00000     621.4944     412.2989   1420.00000     621.4944     412.2989
   1419.98474     623.0831     412.4977   1419.98474     623.0831     412.4977
   1419.96948     621.0480     410.9406   1419.96948     621.0480     410.9406
   1419.95422     619.8303     408.7956   1419.95422     619.8303     408.7956
   1419.93896     620.6588     407.4147   1419.93896     620.6588     407.4147
   1419.92371     620.4109     407.5863   1419.92371     620.4109     407.5863
   1419.90845     620.4553     407.1136   1419.90845     620.4553     407.1136
   1419.89319     620.6158     406.3463   1419.89319     620.6158     406.3463
   1419.87793     620.7321     405.5106   1419.87793     620.7321     405.5106
   1419.86267     621.8726     405.3326   1419.86267     621.8726     405.3326
   1419.84741     621.0038     404.6142   1419.84741     621.0038     404.6142
   1419.83215     621.9323     404.7889   1419.83215     621.9323     404.7889
   1419.81689     621.3051     404.1209   1419.81689     621.3051     404.1209
   1419.80164     622.2468     403.6804   1419.80164     622.2468     403.6804
   1419.78638     621.7804     402.1108   1419.78638     621.7804     402.1108
   1419.77112     622.7770     402.6549   1419.77112     622.7770     402.6549
   1419.75586     622.0417     401.9713   1419.75586     622.0417     401.9713
   1419.74060     623.7611     401.1929   1419.74060     623.7611     401.1929
   1419.72534     623.4403     401.3640   1419.72534     623.4403     401.3640
   1419.71008     623.6188     400.9340   1419.71008     623.6188     400.9340
   1419.69482     624.3002     400.4073   1419.69482     624.3002     400.4073
   1419.67957     624.5800     399.6943   1419.67957     624.5800     399.6943
   1419.66431     624.4321     399.3446   1419.66431     624.4321     399.3446
   1419.64905     624.9517     399.0927   1419.64905     624.9517     399.0927
   1419.63379     625.6173     398.6837   1419.63379     625.6173     398.6837
   1419.61853     624.7234     398.8337   1419.61853     624.7234     398.8337
   1419.60327     626.3510     398.1043   1419.60327     626.3510     398.1043
   1419.58801     626.0791     398.0706   1419.58801     626.0791     398.0706
   1419.57275     626.7714     397.6449   1419.57275     626.7714     397.6449
   1419.55750     627.2388     397.5395   1419.55750     627.2388     397.5395
   1419.54224     626.7068     397.6194   1419.54224     626.7068     397.6194
   1419.52698     627.1963     396.6642   1419.52698     627.1963     396.6642
   1419.51172     628.1925     397.2650   1419.51172     628.1925     397.2650
   1419.49646     628.1680     396.4535   1419.49646     628.1680     396.4535
   1419.48120     628.7499     395.8997   1419.48120     628.7499     395.8997
   1419.46594     628.6588     395.6932   1419.46594     628.6588     395.6932
   1419.45068     629.1302     395.3680   1419.45068     629.1302     395.3680
   1419.43542     630.8763     395.4398   1419.43542     630.8763     395.4398
   1419.42017     630.6149     394.6844   1419.42017     630.6149     394.6844
   1419.40491     630.3113     395.1510   1419.40491     630.3113     395.1510
   1419.38965     631.0635     394.4378   1419.38965     631.0635     394.4378
   1419.37439     631.6990     394.9602   1419.37439     631.6990     394.9602
   1419.35913     632.4235     395.1762   1419.35913     632.4235     395.1762
   1419.34387     632.6401     394.7504   1419.34387     632.6401     394.7504
   1419.32861     633.5920     394.4825   1419.32861     633.5920     394.4825
   1419.31335     633.3561     394.0677   1419.31335     633.3561     394.0677
   1419.29810     632.6252     394.5726   1419.29810     632.6252     394.5726
   1419.28284     632.8195     393.9600   1419.28284     632.8195     393.9600
   1419.26758     634.6459     394.6097   1419.26758     634.6459     394.6097
   1419.25232     634.9570     393.6729   1419.25232     634.9570     393.6729
   1419.23706     635.5616     394.0605   1419.23706     635.5616     394.0605
   1419.22180     635.1158     394.3658   1419.22180     635.1158     394.3658
   1419.20654     635.3939     393.4953   1419.20654     635.3939     393.4953
   1419.19128     636.2170     393.9127   1419.19128     636.2170     393.9127
   1419.17603     637.4872     393.5515   1419.17603     637.4872     393.5515
   1419.16077     637.9149     393.7753   1419.16077     637.9149     393.7753
   1419.14551     638.4916     393.7505   1419.14551     638.4916     393.7505
   1419.13025     638.9349     393.7792   1419.13025     638.9349     393.7792
   1419.11499     637.8840     394.4610   1419.11499     637.8840     394.4610
   1419.09973     639.0441     393.6085   1419.09973     639.0441     393.6085
   1419.08447     640.4913     393.8907   1419.08447     640.4913     393.8907
   1419.06921     640.7735     393.8598   1419.06921     640.7735     393.8598
   1419.05396     641.3474     394.2164   1419.05396     641.3474     394.2164
   1419.03870     642.2213     394.3725   1419.03870     642.2213     394.3725
   1419.02344     642.4061     394.6219   1419.02344     642.4061     394.6219
   1419.00818     642.9809     394.8914   1419.00818     642.9809     394.8914
   1418.99292     642.9397     395.0423   1418.99292     642.9397     395.0423
   1418.97766     643.7001     394.5430   1418.97766     643.7001     394.5430
   1418.96240     645.7360     394.2622   1418.96240     645.7360     394.2622
   1418.94714     644.5621     394.8463   1418.94714     644.5621     394.8463
   1418.93188     646.0830     395.0266   1418.93188     646.0830     395.0266
   1418.91663     646.3723     394.7155   1418.91663     646.3723     394.7155
   1418.90137     645.5707     395.1989   1418.90137     645.5707     395.1989
   1418.88611     647.7158     395.2125   1418.88611     647.7158     395.2125
   1418.87085     648.5131     396.0990   1418.87085     648.5131     396.0990
   1418.85559     648.9068     396.6341   1418.85559     648.9068     396.6341
   1418.84033     648.7600     395.4852   1418.84033     648.7600     395.4852
   1418.82507     649.7602     395.7147   1418.82507     649.7602     395.7147
   1418.80981     650.6921     396.6126   1418.80981     650.6921     396.6126
   1418.79456     650.4952     396.0161   1418.79456     650.4952     396.0161
   1418.77930     651.5753     396.7022   1418.77930     651.5753     396.7022
   1418.76404     652.7772     397.1291   1418.76404     652.7772     397.1291
   1418.74878     653.1908     397.5898   1418.74878     653.1908     397.5898
   1418.73352     653.8183     397.2758   1418.73352     653.8183     397.2758
   1418.71826     653.6963     397.6597   1418.71826     653.6963     397.6597
   1418.70300     653.9652     398.1093   1418.70300     653.9652     398.1093
   1418.68774     655.2507     398.2272   1418.68774     655.2507     398.2272
   1418.67249     656.0804     398.9878   1418.67249     656.0804     398.9878
   1418.65723     657.2477     398.9794   1418.65723     657.2477     398.9794
   1418.64197     656.9618     398.7409   1418.64197     656.9618     398.7409
   1418.62671     657.1647     399.6774   1418.62671     657.1647     399.6774
   1418.61145     658.2275     399.6844   1418.61145     658.2275     399.6844
   1418.59619     658.8405     399.7469   1418.59619     658.8405     399.7469
   1418.58093     659.3961     400.8841   1418.58093     659.3961     400.8841
   1418.56567     660.8469     400.6600   1418.56567     660.8469     400.6600
   1418.55042     661.6141     400.9039   1418.55042     661.6141     400.9039
   1418.53516     661.9464     401.3457   1418.53516     661.9464     401.3457
   1418.51990     662.9451     402.1425   1418.51990     662.9451     402.1425
   1418.50464     664.1601     402.4322   1418.50464     664.1601     402.4322
   1418.48938     664.2827     402.7335   1418.48938     664.2827     402.7335
   1418.47412     665.0493     403.0311   1418.47412     665.0493     403.0311
   1418.45886     665.8439     404.1366   1418.45886     665.8439     404.1366
   1418.44360     666.8417     403.7937   1418.44360     666.8417     403.7937
   1418.42834     668.3719     404.7536   1418.42834     668.3719     404.7536
   1418.41309     668.6939     404.5730   1418.41309     668.6939     404.5730
   1418.39783     668.1686     404.9254   1418.39783     668.1686     404.9254
   1418.38257     670.4966     405.5168   1418.38257     670.4966     405.5168
   1418.36731     671.7519     405.7610   1418.36731     671.7519     405.7610
   1418.35205     671.4278     406.6610   1418.35205     671.4278     406.6610
   1418.33679     671.0008     406.6862   1418.33679     671.0008     406.6862
   1418.32153     672.9480     407.2587   1418.32153     672.9480     407.2587
   1418.30627     673.8900     407.7469   1418.30627     673.8900     407.7469
   1418.29102     673.9027     408.4074   1418.29102     673.9027     408.4074
   1418.27576     674.5415     408.5215   1418.27576     674.5415     408.5215
   1418.26050     675.8118     408.4196   1418.26050     675.8118     408.4196
   1418.24524     676.4568     409.0923   1418.24524     676.4568     409.0923
   1418.22998     678.3010     409.8726   1418.22998     678.3010     409.8726
   1418.21472     678.5630     410.6296   1418.21472     678.5630     410.6296
   1418.19946     679.0160     411.1122   1418.19946     679.0160     411.1122
   1418.18420     679.5175     412.0272   1418.18420     679.5175     412.0272
   1418.16895     681.4175     412.3484   1418.16895     681.4175     412.3484
   1418.15369     681.3256     412.4481   1418.15369     681.3256     412.4481
   1418.13843     682.4485     413.1516   1418.13843     682.4485     413.1516
   1418.12317     684.3704     413.7775   1418.12317     684.3704     413.7775
   1418.10791     684.9359     414.0930   1418.10791     684.9359     414.0930
   1418.09265     685.7920     413.7020   1418.09265     685.7920     413.7020
   1418.07739     685.9199     414.7124   1418.07739     685.9199     414.7124
   1418.06213     687.2871     415.7355   1418.06213     687.2871     415.7355
   1418.04688     687.6257     417.1342   1418.04688     687.6257     417.1342
   1418.03162     688.4035     417.2463   1418.03162     688.4035     417.2463
   1418.01636     689.8326     417.3291   1418.01636     689.8326     417.3291
   1418.00110     690.3851     417.8614   1418.00110     690.3851     417.8614
   1417.98584     691.8190     417.7670   1417.98584     691.8190     417.7670
   1417.97058     692.4584     418.8891   1417.97058     692.4584     418.8891
   1417.95532     693.5734     419.1525   1417.95532     693.5734     419.1525
   1417.94006     694.4790     420.3289   1417.94006     694.4790     420.3289
   1417.92480     694.4445     421.1667   1417.92480     694.4445     421.1667
   1417.90955     696.4963     421.5037   1417.90955     696.4963     421.5037
   1417.89429     696.7245     421.4418   1417.89429     696.7245     421.4418
   1417.87903     698.1237     422.1057   1417.87903     698.1237     422.1057
   1417.86377     699.0585     423.1522   1417.86377     699.0585     423.1522
   1417.84851     700.1129     423.9992   1417.84851     700.1129     423.9992
   1417.83325     700.9771     424.7100   1417.83325     700.9771     424.7100
   1417.81799     701.6895     424.3125   1417.81799     701.6895     424.3125
   1417.80273     702.9057     425.6892   1417.80273     702.9057     425.6892
   1417.78748     703.3406     426.5523   1417.78748     703.3406     426.5523
   1417.77222     704.0452     426.5223   1417.77222     704.0452     426.5223
   1417.75696     705.6202     427.1852   1417.75696     705.6202     427.1852
   1417.74170     706.0388     427.1216   1417.74170     706.0388     427.1216
   1417.72644     706.2758     428.2218   1417.72644     706.2758     428.2218
   1417.71118     709.0378     429.2575   1417.71118     709.0378     429.2575
   1417.69592     707.7314     429.3221   1417.69592     707.7314     429.3221
   1417.68066     708.8021     429.8750   1417.68066     708.8021     429.8750
   1417.66541     710.2476     431.2869   1417.66541     710.2476     431.2869
   1417.65015     711.2897     431.5517   1417.65015     711.2897     431.5517
   1417.63489     711.6506     431.8357   1417.63489     711.6506     431.8357
   1417.61963     712.8324     432.1185   1417.61963     712.8324     432.1185
   1417.60437     713.7607     433.8499   1417.60437     713.7607     433.8499
   1417.58911     716.0190     434.0946   1417.58911     716.0190     434.0946
   1417.57385     716.1621     434.3412   1417.57385     716.1621     434.3412
   1417.55859     717.0229     435.0966   1417.55859     717.0229     435.0966
   1417.54333     718.1748     436.3378   1417.54333     718.1748     436.3378
   1417.52808     718.1793     436.3153   1417.52808     718.1793     436.3153
   1417.51282     719.0485     437.3529   1417.51282     719.0485     437.3529
   1417.49756     720.2551     438.3131   1417.49756     720.2551     438.3131
   1417.48230     720.6362     438.0268   1417.48230     720.6362     438.0268
   1417.46704     722.4838     440.0520   1417.46704     722.4838     440.0520
   1417.45178     722.5026     439.5555   1417.45178     722.5026     439.5555
   1417.43652     723.9888     440.2323   1417.43652     723.9888     440.2323
   1417.42126     724.5439     441.8217   1417.42126     724.5439     441.8217
   1417.40601     726.3170     441.8597   1417.40601     726.3170     441.8597
   1417.39075     726.0305     442.4607   1417.39075     726.0305     442.4607
   1417.37549     726.6273     442.5463   1417.37549     726.6273     442.5463
   1417.36023     728.0236     444.2727   1417.36023     728.0236     444.2727
   1417.34497     729.1378     444.4147   1417.34497     729.1378     444.4147
   1417.32971     730.2264     445.3270   1417.32971     730.2264     445.3270
   1417.31445     730.5216     445.7047   1417.31445     730.5216     445.7047
   1417.29919     730.9088     446.1534   1417.29919     730.9088     446.1534
   1417.28394     732.2778     447.1362   1417.28394     732.2778     447.1362
   1417.26868     733.2816     447.4544   1417.26868     733.2816     447.4544
   1417.25342     734.0121     448.2703   1417.25342     734.0121     448.2703
   1417.23816     735.1699     448.7143   1417.23816     735.1699     448.7143
   1417.22290     735.0414     449.7309   1417.22290     735.0414     449.7309
   1417.20764     737.5623     450.4326   1417.20764     737.5623     450.4326
   1417.19238     737.6495     451.1155   1417.19238     737.6495     451.1155
   1417.17712     737.4632     452.0085   1417.17712     737.4632     452.0085
   1417.16187     738.1125     451.5695   1417.16187     738.1125     451.5695
   1417.14661     739.6708     452.2270   1417.14661     739.6708     452.2270
   1417.13135     739.4775     453.5900   1417.13135     739.4775     453.5900
   1417.11609     740.1077     453.6366   1417.11609     740.1077     453.6366
   1417.10083     742.1745     453.8846   1417.10083     742.1745     453.8846
   1417.08557     743.3791     455.2484   1417.08557     743.3791     455.2484
   1417.07031     742.1422     455.0457   1417.07031     742.1422     455.0457
   1417.05505     743.1102     455.9893   1417.05505     743.1102     455.9893
   1417.03979     745.1614     456.3693   1417.03979     745.1614     456.3693
   1417.02454     743.8487     457.6089   1417.02454     743.8487     457.6089
   1417.00928     745.6511     458.4732   1417.00928     745.6511     458.4732
   1416.99402     745.6721     458.5403   1416.99402     745.6721     458.5403
   1416.97876     746.8980     459.0803   1416.97876     746.8980     459.0803
   1416.96350     748.3736     459.2079   1416.96350     748.3736     459.2079
   1416.94824     748.6505     460.3493   1416.94824     748.6505     460.3493
   1416.93298     748.6544     461.0400   1416.93298     748.6544     461.0400
   1416.91772     748.6054     461.3094   1416.91772     748.6054     461.3094
   1416.90247     750.3707     461.8633   1416.90247     750.3707     461.8633
   1416.88721     749.9025     462.6428   1416.88721     749.9025     462.6428
   1416.87195     749.4866     462.8805   1416.87195     749.4866     462.8805
   1416.85669     751.2720     462.8843   1416.85669     751.2720     462.8843
   1416.84143     751.9601     463.7117   1416.84143     751.9601     463.7117
   1416.82617     751.8195     464.5291   1416.82617     751.8195     464.5291
   1416.81091     752.1189     464.7299   1416.81091     752.1189     464.7299
   1416.79565     753.2017     464.9088   1416.79565     753.2017     464.9088
   1416.78040     753.3623     465.7007   1416.78040     753.3623     465.7007
   1416.76514     753.5591     466.1981   1416.76514     753.5591     466.1981
   1416.74988     753.2813     466.1969   1416.74988     753.2813     466.1969
   1416.73462     754.2534     467.3524   1416.73462     754.2534     467.3524
   1416.71936     755.5323     467.6431   1416.71936     755.5323     467.6431
   1416.70410     756.0391     468.0372   1416.70410     756.0391     468.0372
   1416.68884     755.6351     467.9453   1416.68884     755.6351     467.9453
   1416.67358     756.1306     468.3880   1416.67358     756.1306     468.3880
   1416.65833     755.9765     468.6269   1416.65833     755.9765     468.6269
   1416.64307     756.5417     469.4438   1416.64307     756.5417     469.4438
   1416.62781     756.6426     469.2688   1416.62781     756.6426     469.2688
   1416.61255     756.9816     468.7256   1416.61255     756.9816     468.7256
   1416.59729     756.0663     470.0566   1416.59729     756.0663     470.0566
   1416.58203     756.9490     470.1504   1416.58203     756.9490     470.1504
   1416.56677     757.5267     470.7375   1416.56677     757.5267     470.7375
   1416.55151     756.6622     470.9726   1416.55151     756.6622     470.9726
   1416.53625     757.4775     470.8886   1416.53625     757.4775     470.8886
   1416.52100     758.6270     471.7806   1416.52100     758.6270     471.7806
   1416.50574     757.8692     471.5249   1416.50574     757.8692     471.5249
   1416.49048     756.3943     471.9830   1416.49048     756.3943     471.9830
   1416.47522     757.6133     472.6492   1416.47522     757.6133     472.6492
   1416.45996     757.7468     472.1817   1416.45996     757.7468     472.1817
   1416.44470     757.0968     472.5550   1416.44470     757.0968     472.5550
   1416.42944     757.5402     472.9514   1416.42944     757.5402     472.9514
   1416.41418     757.4143     473.0095   1416.41418     757.4143     473.0095
   1416.39893     756.3740     472.8563   1416.39893     756.3740     472.8563
   1416.38367     757.5031     473.8718   1416.38367     757.5031     473.8718
   1416.36841     757.7125     473.6043   1416.36841     757.7125     473.6043
   1416.35315     756.0892     473.3598   1416.35315     756.0892     473.3598
   1416.33789     756.5031     473.3004   1416.33789     756.5031     473.3004
   1416.32263     756.4344     473.6318   1416.32263     756.4344     473.6318
   1416.30737     756.9909     474.3161   1416.30737     756.9909     474.3161
   1416.29211     756.3914     473.6594   1416.29211     756.3914     473.6594
   1416.27686     755.3820     473.6440   1416.27686     755.3820     473.6440
   1416.26160     755.9792     473.4504   1416.26160     755.9792     473.4504
   1416.24634     754.5608     474.5721   1416.24634     754.5608     474.5721
   1416.23108     755.6523     473.5046   1416.23108     755.6523     473.5046
   1416.21582     755.3839     474.4421   1416.21582     755.3839     474.4421
   1416.20056     753.6661     473.2524   1416.20056     753.6661     473.2524
   1416.18530     753.6107     474.1977   1416.18530     753.6107     474.1977
   1416.17004     754.2139     474.4325   1416.17004     754.2139     474.4325
   1416.15479     752.1697     473.5678   1416.15479     752.1697     473.5678
   1416.13953     753.7775     473.6872   1416.13953     753.7775     473.6872
   1416.12427     752.2938     473.0914   1416.12427     752.2938     473.0914
   1416.10901     751.2991     473.8141   1416.10901     751.2991     473.8141
   1416.09375     751.9760     473.0509   1416.09375     751.9760     473.0509
   1416.07849     751.5916     473.5316   1416.07849     751.5916     473.5316
   1416.06323     750.7927     473.2042   1416.06323     750.7927     473.2042
   1416.04797     749.8550     473.3525   1416.04797     749.8550     473.3525
   1416.03271     748.3542     472.6830   1416.03271     748.3542     472.6830
   1416.01746     748.2819     472.2273   1416.01746     748.2819     472.2273
   1416.00220     747.8324     472.7532   1416.00220     747.8324     472.7532
   1415.98694     747.7377     472.9274   1415.98694     747.7377     472.9274
   1415.97168     747.3990     471.9430   1415.97168     747.3990     471.9430
   1415.95642     747.0106     472.3705   1415.95642     747.0106     472.3705
   1415.94116     745.9131     471.6967   1415.94116     745.9131     471.6967
   1415.92590     746.3943     472.1879   1415.92590     746.3943     472.1879
   1415.91064     745.0956     472.2073   1415.91064     745.0956     472.2073
   1415.89539     744.8571     472.3056   1415.89539     744.8571     472.3056
   1415.88013     744.9294     471.2391   1415.88013     744.9294     471.2391
   1415.86487     742.8441     471.2510   1415.86487     742.8441     471.2510
   1415.84961     742.9184     471.6376   1415.84961     742.9184     471.6376
   1415.83435     742.1626     470.7300   1415.83435     742.1626     470.7300
   1415.81909     741.8265     470.5894   1415.81909     741.8265     470.5894
   1415.80383     739.7615     470.7731   1415.80383     739.7615     470.7731
   1415.78857     739.4947     470.4631   1415.78857     739.4947     470.4631
   1415.77332     738.7627     469.9380   1415.77332     738.7627     469.9380
   1415.75806     739.1725     469.6313   1415.75806     739.1725     469.6313
   1415.74280     738.0563     469.6212   1415.74280     738.0563     469.6212
   1415.72754     736.3172     468.9359   1415.72754     736.3172     468.9359
   1415.71228     736.7407     468.9331   1415.71228     736.7407     468.9331
   1415.69702     734.3222     469.4510   1415.69702     734.3222     469.4510
   1415.68176     733.9402     468.1122   1415.68176     733.9402     468.1122
   1415.66650     734.2905     468.3370   1415.66650     734.2905     468.3370
   1415.65125     732.4587     467.7908   1415.65125     732.4587     467.7908
   1415.63599     733.0668     467.5718   1415.63599     733.0668     467.5718
   1415.62073     732.8214     467.5967   1415.62073     732.8214     467.5967
   1415.60547     730.3890     467.1620   1415.60547     730.3890     467.1620
   1415.59021     729.3339     467.7609   1415.59021     729.3339     467.7609
   1415.57495     728.2455     466.8029   1415.57495     728.2455     466.8029
   1415.55969     727.7190     466.2580   1415.55969     727.7190     466.2580
   1415.54443     727.0621     465.1991   1415.54443     727.0621     465.1991
   1415.52917     725.3578     465.6994   1415.52917     725.3578     465.6994
   1415.51392     725.3818     465.4372   1415.51392     725.3818     465.4372
   1415.49866     724.9728     464.2747   1415.49866     724.9728     464.2747
   1415.48340     723.0302     464.3101   1415.48340     723.0302     464.3101
   1415.46814     721.8870     464.1933   1415.46814     721.8870     464.1933
   1415.45288     721.8270     463.9325   1415.45288     721.8270     463.9325
   1415.43762     720.3049     463.8575   1415.43762     720.3049     463.8575
   1415.42236     719.5854     463.1659   1415.42236     719.5854     463.1659
   1415.40710     718.1405     462.9765   1415.40710     718.1405     462.9765
   1415.39185     717.2538     462.8068   1415.39185     717.2538     462.8068
   1415.37659     716.0517     461.6290   1415.37659     716.0517     461.6290
   1415.36133     714.1556     461.5007   1415.36133     714.1556     461.5007
   1415.34607     713.5804     459.6660   1415.34607     713.5804     459.6660
   1415.33081     712.8820     461.0804   1415.33081     712.8820     461.0804
   1415.31555     712.1035     459.9326   1415.31555     712.1035     459.9326
   1415.30029     710.1075     460.0318   1415.30029     710.1075     460.0318
   1415.28503     709.0002     459.3763   1415.28503     709.0002     459.3763
   1415.26978     708.2456     458.3805   1415.26978     708.2456     458.3805
   1415.25452     706.0662     458.1181   1415.25452     706.0662     458.1181
   1415.23926     705.5324     457.4955   1415.23926     705.5324     457.4955
   1415.22400     703.8060     456.9373   1415.22400     703.8060     456.9373
   1415.20874     702.6826     457.4087   1415.20874     702.6826     457.4087
   1415.19348     701.1008     456.8204   1415.19348     701.1008     456.8204
   1415.17822     700.4736     455.4902   1415.17822     700.4736     455.4902
   1415.16296     698.4549     455.6498   1415.16296     698.4549     455.6498
   1415.14771     697.0577     454.7936   1415.14771     697.0577     454.7936
   1415.13245     695.0319     454.4720   1415.13245     695.0319     454.4720
   1415.11719     694.3563     453.7821   1415.11719     694.3563     453.7821
   1415.10193     692.6348     453.4554   1415.10193     692.6348     453.4554
   1415.08667     690.9308     452.9296   1415.08667     690.9308     452.9296
   1415.07141     691.0066     452.1063   1415.07141     691.0066     452.1063
   1415.05615     689.3678     451.0934   1415.05615     689.3678     451.0934
   1415.04089     687.5295     451.3928   1415.04089     687.5295     451.3928
   1415.02563     685.9337     449.8767   1415.02563     685.9337     449.8767
   1415.01038     683.6575     449.7862   1415.01038     683.6575     449.7862
   1414.99512     682.5916     449.4593   1414.99512     682.5916     449.4593
   1414.97986     680.7932     448.8310   1414.97986     680.7932     448.8310
   1414.96460     679.3460     447.6693   1414.96460     679.3460     447.6693
   1414.94934     677.5750     448.0500   1414.94934     677.5750     448.0500
   1414.93408     675.7656     446.1915   1414.93408     675.7656     446.1915
   1414.91882     674.5763     445.5899   1414.91882     674.5763     445.5899
   1414.90356     673.1757     445.5222   1414.90356     673.1757     445.5222
   1414.88831     670.1856     444.4148   1414.88831     670.1856     444.4148
   1414.87305     670.3718     444.6003   1414.87305     670.3718     444.6003
   1414.85779     667.5975     443.4842   1414.85779     667.5975     443.4842
   1414.84253     666.6215     443.0890   1414.84253     666.6215     443.0890
   1414.82727     663.8936     442.3730   1414.82727     663.8936     442.3730
   1414.81201     661.4597     440.3179   1414.81201     661.4597     440.3179
   1414.79675     660.1521     440.6147   1414.79675     660.1521     440.6147
   1414.78149     658.5508     439.5595   1414.78149     658.5508     439.5595
   1414.76624     656.8887     439.0704   1414.76624     656.8887     439.0704
   1414.75098     654.6638     438.2878   1414.75098     654.6638     438.2878
   1414.73572     653.2728     437.0934   1414.73572     653.2728     437.0934
   1414.72046     652.1672     436.5978   1414.72046     652.1672     436.5978
   1414.70520     648.8541     436.5565   1414.70520     648.8541     436.5565
   1414.68994     647.2324     434.4917   1414.68994     647.2324     434.4917
   1414.67468     646.2311     433.7062   1414.67468     646.2311     433.7062
   1414.65942     643.4854     433.4357   1414.65942     643.4854     433.4357
   1414.64417     640.9149     432.2043   1414.64417     640.9149     432.2043
   1414.62891     638.6025     431.8092   1414.62891     638.6025     431.8092
   1414.61365     636.9101     430.6403   1414.61365     636.9101     430.6403
   1414.59839     635.1441     429.5666   1414.59839     635.1441     429.5666
   1414.58313     632.3065     428.7855   1414.58313     632.3065     428.7855
   1414.56787     630.6646     427.4355   1414.56787     630.6646     427.4355
   1414.55261     628.6102     426.8050   1414.55261     628.6102     426.8050
   1414.53735     625.8309     425.9059   1414.53735     625.8309     425.9059
   1414.52209     624.0484     425.6916   1414.52209     624.0484     425.6916
   1414.50684     621.9625     424.8775   1414.50684     621.9625     424.8775
   1414.49158     620.9946     422.8814   1414.49158     620.9946     422.8814
   1414.47632     617.8309     422.4261   1414.47632     617.8309     422.4261
   1414.46106     614.3848     421.4845   1414.46106     614.3848     421.4845
   1414.44580     612.1956     419.8329   1414.44580     612.1956     419.8329
   1414.43054     610.3248     419.4594   1414.43054     610.3248     419.4594
   1414.41528     608.3738     418.4540   1414.41528     608.3738     418.4540
   1414.40002     606.2177     417.3465   1414.40002     606.2177     417.3465
   1414.38477     603.0466     416.3443   1414.38477     603.0466     416.3443
   1414.36951     600.6290     415.2142   1414.36951     600.6290     415.2142
   1414.35425     599.0065     413.5821   1414.35425     599.0065     413.5821
   1414.33899     595.5839     412.7570   1414.33899     595.5839     412.7570
   1414.32373     593.4925     412.3212   1414.32373     593.4925     412.3212
   1414.30847     591.9982     410.7393   1414.30847     591.9982     410.7393
   1414.29321     589.2666     409.8505   1414.29321     589.2666     409.8505
   1414.27795     586.2243     408.7661   1414.27795     586.2243     408.7661
   1414.26270     582.9763     407.6785   1414.26270     582.9763     407.6785
   1414.24744     580.0892     406.6288   1414.24744     580.0892     406.6288
   1414.23218     578.4921     405.5259   1414.23218     578.4921     405.5259
   1414.21692     575.4503     403.3216   1414.21692     575.4503     403.3216
   1414.20166     573.8685     402.7842   1414.20166     573.8685     402.7842
   1414.18640     571.1552     401.4669   1414.18640     571.1552     401.4669
   1414.17114     569.1026     400.4255   1414.17114     569.1026     400.4255
   1414.15588     565.4219     398.8877   1414.15588     565.4219     398.8877
   1414.14062     562.2623     398.4411   1414.14062     562.2623     398.4411
   1414.12537     560.0659     396.7467   1414.12537     560.0659     396.7467
   1414.11011     557.9460     395.4916   1414.11011     557.9460     395.4916
   1414.09485     555.9518     394.4276   1414.09485     555.9518     394.4276
   1414.07959     554.1290     393.3430   1414.07959     554.1290     393.3430
   1414.06433     549.5196     391.2817   1414.06433     549.5196     391.2817
   1414.04907     547.4257     390.7357   1414.04907     547.4257     390.7357
   1414.03381     544.8286     388.8267   1414.03381     544.8286     388.8267
   1414.01855     542.7104     387.7147   1414.01855     542.7104     387.7147
   1414.00330     564.0319     394.2701   1414.00330     564.0319     394.2701
   1413.98804     538.1436     385.8502   1413.98804     538.1436     385.8502
   1413.97278     533.5241     383.9651   1413.97278     533.5241     383.9651
   1413.95752     530.4683     382.8308   1413.95752     530.4683     382.8308
   1413.94226     528.1838     381.3323   1413.94226     528.1838     381.3323
   1413.92700     524.4879     379.3514   1413.92700     524.4879     379.3514
   1413.91174     521.8325     378.5385   1413.91174     521.8325     378.5385
   1413.89648     519.0131     376.7116   1413.89648     519.0131     376.7116
   1413.88123     516.7302     375.4975   1413.88123     516.7302     375.4975
   1413.86597     514.8029     374.1733   1413.86597     514.8029     374.1733
   1413.85071     511.0772     372.8174   1413.85071     511.0772     372.8174
   1413.83545     508.2064     371.8879   1413.83545     508.2064     371.8879
   1413.82019     505.3846     370.0402   1413.82019     505.3846     370.0402
   1413.80493     502.5245     368.8105   1413.80493     502.5245     368.8105
   1413.78967     499.6651     367.1650   1413.78967     499.6651     367.1650
   1413.77441     496.0022     365.7286   1413.77441     496.0022     365.7286
   1413.75916     493.2643     363.9175   1413.75916     493.2643     363.9175
   1413.74390     491.1253     362.8818   1413.74390     491.1253     362.8818
   1413.72864     488.2606     361.4075   1413.72864     488.2606     361.4075
   1413.71338     485.4306     359.9175   1413.71338     485.4306     359.9175
   1413.69812     482.9924     358.9677   1413.69812     482.9924     358.9677
   1413.68286     479.8438     357.3647   1413.68286     479.8438     357.3647
   1413.66760     476.5471     355.4470   1413.66760     476.5471     355.4470
   1413.65234     474.2122     354.0695   1413.65234     474.2122     354.0695
   1413.63708     470.5806     352.8453   1413.63708     470.5806     352.8453
   1413.62183     468.4125     351.1375   1413.62183     468.4125     351.1375
   1413.60657     465.4064     349.7487   1413.60657     465.4064     349.7487
   1413.59131     462.9911     348.2558   1413.59131     462.9911     348.2558
   1413.57605     460.4335     346.8616   1413.57605     460.4335     346.8616
   1413.56079     457.3721     345.2868   1413.56079     457.3721     345.2868
   1413.54553     454.2384     343.7068   1413.54553     454.2384     343.7068
   1413.53027     451.7822     342.5218   1413.53027     451.7822     342.5218
   1413.51501     449.1704     341.0940   1413.51501     449.1704     341.0940
   1413.49976     446.1511     339.2833   1413.49976     446.1511     339.2833
   1413.48450     443.4500     338.7387   1413.48450     443.4500     338.7387
   1413.46924     440.8071     336.2438   1413.46924     440.8071     336.2438
   1413.45398     437.6738     335.0905   1413.45398     437.6738     335.0905
   1413.43872     435.7948     333.8157   1413.43872     435.7948     333.8157
   1413.42346     432.2552     332.3404   1413.42346     432.2552     332.3404
   1413.40820     430.4724     330.9925   1413.40820     430.4724     330.9925
   1413.39294     427.9372     329.3608   1413.39294     427.9372     329.3608
   1413.37769     424.9189     328.2408   1413.37769     424.9189     328.2408
   1413.36243     421.5961     326.4845   1413.36243     421.5961     326.4845
   1413.34717     419.9686     325.2567   1413.34717     419.9686     325.2567
   1413.33191     416.8487     323.8143   1413.33191     416.8487     323.8143
   1413.31665     415.0434     322.3797   1413.31665     415.0434     322.3797
   1413.30139     412.1054     320.1364   1413.30139     412.1054     320.1364
   1413.28613     409.8842     319.5547   1413.28613     409.8842     319.5547
   1413.27087     406.9656     318.0948   1413.27087     406.9656     318.0948
   1413.25562     405.0773     316.9667   1413.25562     405.0773     316.9667
   1413.24036     402.4610     315.2208   1413.24036     402.4610     315.2208
   1413.22510     399.8521     313.6370   1413.22510     399.8521     313.6370
   1413.20984     396.9944     312.3207   1413.20984     396.9944     312.3207
   1413.19458     395.0157     310.5411   1413.19458     395.0157     310.5411
   1413.17932     392.5779     309.7579   1413.17932     392.5779     309.7579
   1413.16406     389.9323     308.4211   1413.16406     389.9323     308.4211
   1413.14880     387.9341     306.9513   1413.14880     387.9341     306.9513
   1413.13354     385.7576     305.7081   1413.13354     385.7576     305.7081
   1413.11829     384.0429     304.5270   1413.11829     384.0429     304.5270
   1413.10303     381.5823     303.3784   1413.10303     381.5823     303.3784
   1413.08777     379.4765     301.9777   1413.08777     379.4765     301.9777
   1413.07251     377.3625     300.8683   1413.07251     377.3625     300.8683
   1413.05725     375.5722     299.7263   1413.05725     375.5722     299.7263
   1413.04199     373.3017     297.9969   1413.04199     373.3017     297.9969
   1413.02673     371.2923     297.1307   1413.02673     371.2923     297.1307
   1413.01147     369.2782     295.7538   1413.01147     369.2782     295.7538
   1412.99622     367.0699     294.6540   1412.99622     367.0699     294.6540
   1412.98096     365.7333     293.8696   1412.98096     365.7333     293.8696
   1412.96570     363.8115     292.7793   1412.96570     363.8115     292.7793
   1412.95044     360.7397     291.1714   1412.95044     360.7397     291.1714
   1412.93518     359.5006     290.1208   1412.93518     359.5006     290.1208
   1412.91992     358.1618     289.4357   1412.91992     358.1618     289.4357
   1412.90466     356.7379     288.4612   1412.90466     356.7379     288.4612
   1412.88940     354.8236     287.1358   1412.88940     354.8236     287.1358
   1412.87415     352.5626     286.3450   1412.87415     352.5626     286.3450
   1412.85889     351.1436     285.1461   1412.85889     351.1436     285.1461
   1412.84363     349.8051     284.5420   1412.84363     349.8051     284.5420
   1412.82837     347.7398     283.6095   1412.82837     347.7398     283.6095
   1412.81311     346.8666     282.4735   1412.81311     346.8666     282.4735
   1412.79785     345.6268     281.6078   1412.79785     345.6268     281.6078
   1412.78259     343.7264     280.7081   1412.78259     343.7264     280.7081
   1412.76733     342.7575     280.3662   1412.76733     342.7575     280.3662
   1412.75208     341.5868     279.5720   1412.75208     341.5868     279.5720
   1412.73682     340.1407     278.8493   1412.73682     340.1407     278.8493
   1412.72156     338.8029     277.9257   1412.72156     338.8029     277.9257
   1412.70630     337.8366     277.3825   1412.70630     337.8366     277.3825
   1412.69104     336.4733     276.5604   1412.69104     336.4733     276.5604
   1412.67578     335.2570     276.3230   1412.67578     335.2570     276.3230
   1412.66052     333.6602     275.3119   1412.66052     333.6602     275.3119
   1412.64526     334.2200     274.5951   1412.64526     334.2200     274.5951
   1412.63000     332.2527     274.2002   1412.63000     332.2527     274.2002
   1412.61475     331.7407     273.4505   1412.61475     331.7407     273.4505
   1412.59949     330.5057     273.1920   1412.59949     330.5057     273.1920
   1412.58423     329.5902     272.9238   1412.58423     329.5902     272.9238
   1412.56897     329.0215     272.1319   1412.56897     329.0215     272.1319
   1412.55371     328.2310     272.0850   1412.55371     328.2310     272.0850
   1412.53845     327.7316     271.5609   1412.53845     327.7316     271.5609
   1412.52319     327.0701     270.8904   1412.52319     327.0701     270.8904
   1412.50793     325.8418     271.3008   1412.50793     325.8418     271.3008
   1412.49268     325.9189     270.8416   1412.49268     325.9189     270.8416
   1412.47742     326.0414     270.5777   1412.47742     326.0414     270.5777
   1412.46216     324.8075     270.8418   1412.46216     324.8075     270.8418
   1412.44690     324.8838     270.2529   1412.44690     324.8838     270.2529
   1412.43164     324.6365     270.3698   1412.43164     324.6365     270.3698
   1412.41638     324.2012     270.6494   1412.41638     324.2012     270.6494
   1412.40112     324.3236     270.4572   1412.40112     324.3236     270.4572
   1412.38586     323.9486     270.3368   1412.38586     323.9486     270.3368
   1412.37061     324.1303     270.1422   1412.37061     324.1303     270.1422
   1412.35535     323.9016     270.8415   1412.35535     323.9016     270.8415
   1412.34009     323.5794     270.8120   1412.34009     323.5794     270.8120
   1412.32483     323.2603     270.9497   1412.32483     323.2603     270.9497
   1412.30957     323.5539     271.3167   1412.30957     323.5539     271.3167
   1412.29431     323.9408     271.3789   1412.29431     323.9408     271.3789
   1412.27905     324.5036     271.3770   1412.27905     324.5036     271.3770
   1412.26379     324.5378     272.4200   1412.26379     324.5378     272.4200
   1412.24854     324.8799     272.6118   1412.24854     324.8799     272.6118
   1412.23328     324.8885     273.0900   1412.23328     324.8885     273.0900
   1412.21802     325.3091     273.3078   1412.21802     325.3091     273.3078
   1412.20276     326.0378     274.2658   1412.20276     326.0378     274.2658