#     FILENAME=!Skynet_57533_lach-hhg-194-2_20795_21209.cyb.fits
#     BASENAME=Skynet_57533_lach-hhg-194-2_20795_21209
#     SRC_NAME=lach-hhg-194-2
#     OBSERVER=ccmadison16_9505
#     DATE_OBS=2016-05-25T18:35:49.680
#        OBSID=20795
#      SCANNUM=21209
#          MJD=57533.7759
#          UTC=67039
#     SCANTYPE=track
#     DATAMODE=HIRES
#     TUNEFREQ=1420.0000
# Actual_FREQ1=1420.0000
# Actual_FREQ2=1420.0000
#    LO1Tuning=6870.000
#     RFFILTER=1355_1435
#        OBSBW=-15.6250
#        NCHAN=1024 
#        FOCUS=37.0709
#           RA=06:15:49.87
#          DEC=16:46:57.15
#      RA(hrs)=6.263900
#     DEC(deg)=16.782500
#    AZIM(deg)=151.820
#    ELEV(deg)=66.060
#     IFattens=10.00, 9.00
#      WARNING=None
#    TCAL_XL1=7.9635
#    TCAL_YR1=9.1340
#    TCAL_XL2=7.9635
#    TCAL_YR2=9.1340
#     TRX_XL1=11.7060
#     TRX_YR1=11.7060
#     TRX_XL2=11.7060
#     TRX_YR2=11.7060
#        TAVE=1.0000
#Freq1(MHz)          XL1          YR1  Freq2(MHz)          XL2          YR2 

   1427.81250     366.5052     264.3036   1427.81250     366.5052     264.3036
   1427.79724     366.3472     265.2267   1427.79724     366.3472     265.2267
   1427.78198     367.6635     266.2134   1427.78198     367.6635     266.2134
   1427.76672     368.3523     267.1644   1427.76672     368.3523     267.1644
   1427.75146     368.8434     268.0619   1427.75146     368.8434     268.0619
   1427.73621     369.7207     269.3943   1427.73621     369.7207     269.3943
   1427.72095     370.7652     269.9938   1427.72095     370.7652     269.9938
   1427.70569     371.8156     271.1257   1427.70569     371.8156     271.1257
   1427.69043     372.7304     272.3112   1427.69043     372.7304     272.3112
   1427.67517     373.4415     273.4404   1427.67517     373.4415     273.4404
   1427.65991     374.2466     274.9002   1427.65991     374.2466     274.9002
   1427.64465     375.6420     275.6320   1427.64465     375.6420     275.6320
   1427.62939     376.2087     277.1653   1427.62939     376.2087     277.1653
   1427.61414     377.9732     278.6562   1427.61414     377.9732     278.6562
   1427.59888     379.1218     279.6971   1427.59888     379.1218     279.6971
   1427.58362     380.8995     280.4783   1427.58362     380.8995     280.4783
   1427.56836     382.2151     281.8642   1427.56836     382.2151     281.8642
   1427.55310     383.3000     283.7356   1427.55310     383.3000     283.7356
   1427.53784     385.0341     284.6745   1427.53784     385.0341     284.6745
   1427.52258     386.4265     286.2484   1427.52258     386.4265     286.2484
   1427.50732     388.5103     288.1991   1427.50732     388.5103     288.1991
   1427.49207     388.8425     289.5144   1427.49207     388.8425     289.5144
   1427.47681     391.7150     290.7017   1427.47681     391.7150     290.7017
   1427.46155     393.1663     292.4815   1427.46155     393.1663     292.4815
   1427.44629     394.4265     293.6677   1427.44629     394.4265     293.6677
   1427.43103     396.2682     295.1581   1427.43103     396.2682     295.1581
   1427.41577     398.0005     297.0208   1427.41577     398.0005     297.0208
   1427.40051     399.8225     298.3059   1427.40051     399.8225     298.3059
   1427.38525     401.7751     300.2797   1427.38525     401.7751     300.2797
   1427.37000     404.2680     302.0150   1427.37000     404.2680     302.0150
   1427.35474     407.1188     303.5793   1427.35474     407.1188     303.5793
   1427.33948     408.9233     304.4434   1427.33948     408.9233     304.4434
   1427.32422     410.9477     306.4983   1427.32422     410.9477     306.4983
   1427.30896     413.5884     308.5634   1427.30896     413.5884     308.5634
   1427.29370     415.5223     310.4495   1427.29370     415.5223     310.4495
   1427.27844     417.5090     311.8036   1427.27844     417.5090     311.8036
   1427.26318     420.5478     313.2610   1427.26318     420.5478     313.2610
   1427.24792     422.8840     315.5254   1427.24792     422.8840     315.5254
   1427.23267     425.1504     317.3033   1427.23267     425.1504     317.3033
   1427.21741     427.5766     318.7499   1427.21741     427.5766     318.7499
   1427.20215     429.8088     321.1700   1427.20215     429.8088     321.1700
   1427.18689     432.8266     322.5262   1427.18689     432.8266     322.5262
   1427.17163     435.3485     323.7756   1427.17163     435.3485     323.7756
   1427.15637     437.8042     326.7519   1427.15637     437.8042     326.7519
   1427.14111     440.4404     328.1250   1427.14111     440.4404     328.1250
   1427.12585     443.0485     330.3078   1427.12585     443.0485     330.3078
   1427.11060     445.5776     332.2072   1427.11060     445.5776     332.2072
   1427.09534     448.1377     333.7843   1427.09534     448.1377     333.7843
   1427.08008     451.7442     335.8695   1427.08008     451.7442     335.8695
   1427.06482     454.2488     337.5573   1427.06482     454.2488     337.5573
   1427.04956     457.4040     339.3895   1427.04956     457.4040     339.3895
   1427.03430     459.9426     341.8083   1427.03430     459.9426     341.8083
   1427.01904     462.6181     343.8495   1427.01904     462.6181     343.8495
   1427.00378     466.7674     346.1259   1427.00378     466.7674     346.1259
   1426.98853     469.2957     347.6844   1426.98853     469.2957     347.6844
   1426.97327     472.1695     348.9580   1426.97327     472.1695     348.9580
   1426.95801     475.8814     351.1420   1426.95801     475.8814     351.1420
   1426.94275     478.4561     353.3832   1426.94275     478.4561     353.3832
   1426.92749     481.8493     355.2507   1426.92749     481.8493     355.2507
   1426.91223     484.3411     356.6978   1426.91223     484.3411     356.6978
   1426.89697     487.4017     359.3877   1426.89697     487.4017     359.3877
   1426.88171     491.1071     360.8490   1426.88171     491.1071     360.8490
   1426.86646     494.8201     362.7949   1426.86646     494.8201     362.7949
   1426.85120     496.6367     364.7061   1426.85120     496.6367     364.7061
   1426.83594     500.7706     366.7287   1426.83594     500.7706     366.7287
   1426.82068     503.6305     368.5705   1426.82068     503.6305     368.5705
   1426.80542     507.8548     370.6226   1426.80542     507.8548     370.6226
   1426.79016     510.3036     372.3514   1426.79016     510.3036     372.3514
   1426.77490     514.5015     374.3751   1426.77490     514.5015     374.3751
   1426.75964     517.0132     376.4637   1426.75964     517.0132     376.4637
   1426.74438     520.1700     378.0670   1426.74438     520.1700     378.0670
   1426.72913     523.2456     379.8101   1426.72913     523.2456     379.8101
   1426.71387     526.9893     381.7408   1426.71387     526.9893     381.7408
   1426.69861     530.0651     384.2954   1426.69861     530.0651     384.2954
   1426.68335     534.3799     385.4204   1426.68335     534.3799     385.4204
   1426.66809     536.6852     387.8347   1426.66809     536.6852     387.8347
   1426.65283     540.5029     389.9587   1426.65283     540.5029     389.9587
   1426.63757     542.9222     391.0919   1426.63757     542.9222     391.0919
   1426.62231     549.0137     393.9731   1426.62231     549.0137     393.9731
   1426.60706     551.1399     394.9948   1426.60706     551.1399     394.9948
   1426.59180     554.1874     396.6700   1426.59180     554.1874     396.6700
   1426.57654     557.1293     397.7941   1426.57654     557.1293     397.7941
   1426.56128     561.3007     398.9926   1426.56128     561.3007     398.9926
   1426.54602     564.6956     401.5481   1426.54602     564.6956     401.5481
   1426.53076     567.5411     403.2928   1426.53076     567.5411     403.2928
   1426.51550     571.7781     405.3034   1426.51550     571.7781     405.3034
   1426.50024     574.4523     407.0332   1426.50024     574.4523     407.0332
   1426.48499     578.0486     409.2525   1426.48499     578.0486     409.2525
   1426.46973     581.0509     410.3132   1426.46973     581.0509     410.3132
   1426.45447     585.6505     411.8795   1426.45447     585.6505     411.8795
   1426.43921     587.6719     413.4714   1426.43921     587.6719     413.4714
   1426.42395     591.2729     416.1068   1426.42395     591.2729     416.1068
   1426.40869     594.9933     416.6383   1426.40869     594.9933     416.6383
   1426.39343     598.1237     419.4210   1426.39343     598.1237     419.4210
   1426.37817     602.9022     420.7536   1426.37817     602.9022     420.7536
   1426.36292     605.5596     421.6248   1426.36292     605.5596     421.6248
   1426.34766     609.3811     423.3989   1426.34766     609.3811     423.3989
   1426.33240     612.1895     425.4097   1426.33240     612.1895     425.4097
   1426.31714     615.6776     426.5155   1426.31714     615.6776     426.5155
   1426.30188     618.1284     428.3717   1426.30188     618.1284     428.3717
   1426.28662     621.6831     429.4593   1426.28662     621.6831     429.4593
   1426.27136     624.7075     430.9916   1426.27136     624.7075     430.9916
   1426.25610     627.9775     432.7080   1426.25610     627.9775     432.7080
   1426.24084     631.4247     434.2589   1426.24084     631.4247     434.2589
   1426.22559     633.3571     434.7149   1426.22559     633.3571     434.7149
   1426.21033     638.4507     437.5638   1426.21033     638.4507     437.5638
   1426.19507     641.1727     438.2863   1426.19507     641.1727     438.2863
   1426.17981     643.6916     439.9356   1426.17981     643.6916     439.9356
   1426.16455     647.2369     441.4484   1426.16455     647.2369     441.4484
   1426.14929     649.6631     442.2700   1426.14929     649.6631     442.2700
   1426.13403     654.1678     444.2450   1426.13403     654.1678     444.2450
   1426.11877     657.0458     445.4053   1426.11877     657.0458     445.4053
   1426.10352     660.0406     446.6974   1426.10352     660.0406     446.6974
   1426.08826     662.3276     447.4451   1426.08826     662.3276     447.4451
   1426.07300     665.1511     448.7437   1426.07300     665.1511     448.7437
   1426.05774     668.6466     450.5034   1426.05774     668.6466     450.5034
   1426.04248     670.9357     450.9142   1426.04248     670.9357     450.9142
   1426.02722     674.4641     452.4473   1426.02722     674.4641     452.4473
   1426.01196     676.5728     452.9426   1426.01196     676.5728     452.9426
   1425.99670     679.8084     454.8953   1425.99670     679.8084     454.8953
   1425.98145     682.5706     456.1691   1425.98145     682.5706     456.1691
   1425.96619     684.9795     457.7563   1425.96619     684.9795     457.7563
   1425.95093     687.3060     458.7633   1425.95093     687.3060     458.7633
   1425.93567     691.5770     459.6697   1425.93567     691.5770     459.6697
   1425.92041     693.4260     460.4852   1425.92041     693.4260     460.4852
   1425.90515     696.4393     461.7198   1425.90515     696.4393     461.7198
   1425.88989     697.5688     463.3059   1425.88989     697.5688     463.3059
   1425.87463     700.6737     463.2534   1425.87463     700.6737     463.2534
   1425.85938     705.2305     465.2970   1425.85938     705.2305     465.2970
   1425.84412     706.6416     466.0422   1425.84412     706.6416     466.0422
   1425.82886     709.0989     467.3393   1425.82886     709.0989     467.3393
   1425.81360     711.4003     467.2912   1425.81360     711.4003     467.2912
   1425.79834     713.9442     469.6738   1425.79834     713.9442     469.6738
   1425.78308     715.4510     469.7570   1425.78308     715.4510     469.7570
   1425.76782     718.0629     470.8620   1425.76782     718.0629     470.8620
   1425.75256     720.9382     471.4786   1425.75256     720.9382     471.4786
   1425.73730     723.1850     472.2293   1425.73730     723.1850     472.2293
   1425.72205     725.4196     473.4099   1425.72205     725.4196     473.4099
   1425.70679     726.9810     473.9041   1425.70679     726.9810     473.9041
   1425.69153     729.4652     475.2613   1425.69153     729.4652     475.2613
   1425.67627     731.7374     476.1085   1425.67627     731.7374     476.1085
   1425.66101     734.3660     477.8432   1425.66101     734.3660     477.8432
   1425.64575     736.2358     477.5541   1425.64575     736.2358     477.5541
   1425.63049     738.4539     479.2712   1425.63049     738.4539     479.2712
   1425.61523     740.5179     479.5639   1425.61523     740.5179     479.5639
   1425.59998     742.6954     480.8499   1425.59998     742.6954     480.8499
   1425.58472     745.4027     481.4979   1425.58472     745.4027     481.4979
   1425.56946     745.5630     481.7954   1425.56946     745.5630     481.7954
   1425.55420     748.0170     482.9336   1425.55420     748.0170     482.9336
   1425.53894     748.7709     483.5522   1425.53894     748.7709     483.5522
   1425.52368     750.8101     484.2233   1425.52368     750.8101     484.2233
   1425.50842     752.8578     484.9006   1425.50842     752.8578     484.9006
   1425.49316     753.8519     485.5837   1425.49316     753.8519     485.5837
   1425.47791     754.2532     486.5200   1425.47791     754.2532     486.5200
   1425.46265     756.9361     487.8148   1425.46265     756.9361     487.8148
   1425.44739     760.7288     487.5928   1425.44739     760.7288     487.5928
   1425.43213     761.8657     489.0695   1425.43213     761.8657     489.0695
   1425.41687     764.3969     489.7125   1425.41687     764.3969     489.7125
   1425.40161     763.2454     490.1685   1425.40161     763.2454     490.1685
   1425.38635     766.0017     490.5659   1425.38635     766.0017     490.5659
   1425.37109     765.9083     492.0222   1425.37109     765.9083     492.0222
   1425.35583     768.4096     491.7337   1425.35583     768.4096     491.7337
   1425.34058     770.0327     492.4688   1425.34058     770.0327     492.4688
   1425.32532     771.8263     492.4546   1425.32532     771.8263     492.4546
   1425.31006     771.8524     493.3300   1425.31006     771.8524     493.3300
   1425.29480     772.5353     492.9605   1425.29480     772.5353     492.9605
   1425.27954     774.6184     494.7710   1425.27954     774.6184     494.7710
   1425.26428     775.0129     495.8439   1425.26428     775.0129     495.8439
   1425.24902     776.9489     495.5464   1425.24902     776.9489     495.5464
   1425.23376     776.5872     496.7440   1425.23376     776.5872     496.7440
   1425.21851     778.2064     496.4526   1425.21851     778.2064     496.4526
   1425.20325     780.1370     497.9179   1425.20325     780.1370     497.9179
   1425.18799     780.9645     497.9183   1425.18799     780.9645     497.9183
   1425.17273     782.1387     498.8350   1425.17273     782.1387     498.8350
   1425.15747     780.9115     499.2654   1425.15747     780.9115     499.2654
   1425.14221     783.8181     500.6098   1425.14221     783.8181     500.6098
   1425.12695     783.2255     500.1308   1425.12695     783.2255     500.1308
   1425.11169     784.5238     499.5096   1425.11169     784.5238     499.5096
   1425.09644     785.8254     500.4380   1425.09644     785.8254     500.4380
   1425.08118     785.9204     501.8868   1425.08118     785.9204     501.8868
   1425.06592     786.3896     501.8265   1425.06592     786.3896     501.8265
   1425.05066     787.1730     502.5018   1425.05066     787.1730     502.5018
   1425.03540     789.4999     502.4384   1425.03540     789.4999     502.4384
   1425.02014     788.0352     502.1945   1425.02014     788.0352     502.1945
   1425.00488     789.3964     504.0489   1425.00488     789.3964     504.0489
   1424.98962     790.0912     503.7569   1424.98962     790.0912     503.7569
   1424.97437     789.3952     504.6334   1424.97437     789.3952     504.6334
   1424.95911     790.9020     505.0719   1424.95911     790.9020     505.0719
   1424.94385     791.5502     505.3405   1424.94385     791.5502     505.3405
   1424.92859     791.3210     505.5693   1424.92859     791.3210     505.5693
   1424.91333     790.9278     505.4268   1424.91333     790.9278     505.4268
   1424.89807     792.4503     505.2194   1424.89807     792.4503     505.2194
   1424.88281     790.9763     506.5487   1424.88281     790.9763     506.5487
   1424.86755     793.1788     506.4936   1424.86755     793.1788     506.4936
   1424.85229     792.5915     507.6089   1424.85229     792.5915     507.6089
   1424.83704     792.8026     507.6754   1424.83704     792.8026     507.6754
   1424.82178     792.8289     508.2668   1424.82178     792.8289     508.2668
   1424.80652     793.2612     507.8470   1424.80652     793.2612     507.8470
   1424.79126     793.3024     507.9336   1424.79126     793.3024     507.9336
   1424.77600     793.5486     508.8514   1424.77600     793.5486     508.8514
   1424.76074     793.5779     509.3885   1424.76074     793.5779     509.3885
   1424.74548     793.9555     509.2672   1424.74548     793.9555     509.2672
   1424.73022     793.6588     509.5992   1424.73022     793.6588     509.5992
   1424.71497     792.3364     510.5311   1424.71497     792.3364     510.5311
   1424.69971     793.5038     509.6044   1424.69971     793.5038     509.6044
   1424.68445     793.7601     510.6450   1424.68445     793.7601     510.6450
   1424.66919     794.2242     511.1786   1424.66919     794.2242     511.1786
   1424.65393     792.8835     511.6299   1424.65393     792.8835     511.6299
   1424.63867     794.8754     510.7597   1424.63867     794.8754     510.7597
   1424.62341     792.8659     511.8654   1424.62341     792.8659     511.8654
   1424.60815     793.2249     511.5709   1424.60815     793.2249     511.5709
   1424.59290     793.1103     511.8872   1424.59290     793.1103     511.8872
   1424.57764     791.3373     512.7437   1424.57764     791.3373     512.7437
   1424.56238     790.9098     512.9386   1424.56238     790.9098     512.9386
   1424.54712     791.2922     512.4555   1424.54712     791.2922     512.4555
   1424.53186     790.7224     512.8441   1424.53186     790.7224     512.8441
   1424.51660     791.7728     512.8948   1424.51660     791.7728     512.8948
   1424.50134     789.8091     512.7473   1424.50134     789.8091     512.7473
   1424.48608     789.5032     513.0261   1424.48608     789.5032     513.0261
   1424.47083     789.5182     514.1542   1424.47083     789.5182     514.1542
   1424.45557     787.6016     514.5607   1424.45557     787.6016     514.5607
   1424.44031     788.1198     513.8182   1424.44031     788.1198     513.8182
   1424.42505     788.4724     514.4106   1424.42505     788.4724     514.4106
   1424.40979     788.5350     514.7520   1424.40979     788.5350     514.7520
   1424.39453     788.7346     513.7965   1424.39453     788.7346     513.7965
   1424.37927     786.8489     515.0731   1424.37927     786.8489     515.0731
   1424.36401     787.9088     515.5104   1424.36401     787.9088     515.5104
   1424.34875     787.0986     514.6094   1424.34875     787.0986     514.6094
   1424.33350     786.4874     515.2719   1424.33350     786.4874     515.2719
   1424.31824     784.8653     515.3220   1424.31824     784.8653     515.3220
   1424.30298     785.0037     516.1240   1424.30298     785.0037     516.1240
   1424.28772     784.1926     515.7585   1424.28772     784.1926     515.7585
   1424.27246     783.5522     515.9030   1424.27246     783.5522     515.9030
   1424.25720     781.8470     515.5423   1424.25720     781.8470     515.5423
   1424.24194     782.4753     515.6075   1424.24194     782.4753     515.6075
   1424.22668     780.9380     516.2476   1424.22668     780.9380     516.2476
   1424.21143     781.2446     515.9926   1424.21143     781.2446     515.9926
   1424.19617     779.6163     515.5304   1424.19617     779.6163     515.5304
   1424.18091     779.4449     516.3234   1424.18091     779.4449     516.3234
   1424.16565     779.4467     516.2734   1424.16565     779.4467     516.2734
   1424.15039     779.8218     517.4146   1424.15039     779.8218     517.4146
   1424.13513     776.6430     517.0653   1424.13513     776.6430     517.0653
   1424.11987     778.0063     517.2239   1424.11987     778.0063     517.2239
   1424.10461     776.7554     516.9654   1424.10461     776.7554     516.9654
   1424.08936     775.7246     516.6124   1424.08936     775.7246     516.6124
   1424.07410     775.4448     516.9434   1424.07410     775.4448     516.9434
   1424.05884     775.5376     518.0873   1424.05884     775.5376     518.0873
   1424.04358     774.3497     517.0462   1424.04358     774.3497     517.0462
   1424.02832     772.8810     517.0103   1424.02832     772.8810     517.0103
   1424.01306     771.8845     517.1381   1424.01306     771.8845     517.1381
   1423.99780     770.9883     517.2509   1423.99780     770.9883     517.2509
   1423.98254     771.5196     517.1229   1423.98254     771.5196     517.1229
   1423.96729     768.9625     517.6420   1423.96729     768.9625     517.6420
   1423.95203     768.6683     517.5741   1423.95203     768.6683     517.5741
   1423.93677     768.9894     517.4659   1423.93677     768.9894     517.4659
   1423.92151     767.5614     516.9733   1423.92151     767.5614     516.9733
   1423.90625     766.8589     516.9958   1423.90625     766.8589     516.9958
   1423.89099     767.7213     516.6245   1423.89099     767.7213     516.6245
   1423.87573     765.6982     517.2213   1423.87573     765.6982     517.2213
   1423.86047     764.7753     516.5524   1423.86047     764.7753     516.5524
   1423.84521     764.1334     516.7086   1423.84521     764.1334     516.7086
   1423.82996     762.5220     516.3268   1423.82996     762.5220     516.3268
   1423.81470     762.6813     516.8137   1423.81470     762.6813     516.8137
   1423.79944     761.9233     516.9968   1423.79944     761.9233     516.9968
   1423.78418     760.7977     516.6122   1423.78418     760.7977     516.6122
   1423.76892     759.2895     515.6750   1423.76892     759.2895     515.6750
   1423.75366     759.2616     516.8061   1423.75366     759.2616     516.8061
   1423.73840     758.4796     516.3528   1423.73840     758.4796     516.3528
   1423.72314     757.8985     515.7354   1423.72314     757.8985     515.7354
   1423.70789     757.1032     516.5813   1423.70789     757.1032     516.5813
   1423.69263     757.2591     516.3510   1423.69263     757.2591     516.3510
   1423.67737     755.2756     516.1547   1423.67737     755.2756     516.1547
   1423.66211     755.1393     516.6724   1423.66211     755.1393     516.6724
   1423.64685     753.9835     515.6865   1423.64685     753.9835     515.6865
   1423.63159     753.6273     516.2324   1423.63159     753.6273     516.2324
   1423.61633     752.8979     515.4301   1423.61633     752.8979     515.4301
   1423.60107     751.7836     515.8210   1423.60107     751.7836     515.8210
   1423.58582     750.2139     515.4509   1423.58582     750.2139     515.4509
   1423.57056     750.5359     514.6094   1423.57056     750.5359     514.6094
   1423.55530     748.9212     514.6439   1423.55530     748.9212     514.6439
   1423.54004     749.2542     514.6916   1423.54004     749.2542     514.6916
   1423.52478     747.7427     514.9443   1423.52478     747.7427     514.9443
   1423.50952     745.5960     514.5112   1423.50952     745.5960     514.5112
   1423.49426     745.0898     514.3939   1423.49426     745.0898     514.3939
   1423.47900     745.1693     513.8803   1423.47900     745.1693     513.8803
   1423.46375     744.0642     513.1539   1423.46375     744.0642     513.1539
   1423.44849     743.5591     513.4975   1423.44849     743.5591     513.4975
   1423.43323     744.1830     513.1558   1423.43323     744.1830     513.1558
   1423.41797     741.9333     512.1251   1423.41797     741.9333     512.1251
   1423.40271     742.5176     511.9899   1423.40271     742.5176     511.9899
   1423.38745     740.2000     512.3067   1423.38745     740.2000     512.3067
   1423.37219     741.1054     512.2778   1423.37219     741.1054     512.2778
   1423.35693     740.2706     512.4391   1423.35693     740.2706     512.4391
   1423.34167     738.5676     512.1602   1423.34167     738.5676     512.1602
   1423.32642     737.3618     511.6377   1423.32642     737.3618     511.6377
   1423.31116     737.8909     511.3799   1423.31116     737.8909     511.3799
   1423.29590     736.2918     509.7143   1423.29590     736.2918     509.7143
   1423.28064     735.1757     510.4537   1423.28064     735.1757     510.4537
   1423.26538     734.3486     509.4005   1423.26538     734.3486     509.4005
   1423.25012     735.6404     509.5141   1423.25012     735.6404     509.5141
   1423.23486     735.0289     509.7274   1423.23486     735.0289     509.7274
   1423.21960     732.7972     509.1939   1423.21960     732.7972     509.1939
   1423.20435     732.9723     507.7324   1423.20435     732.9723     507.7324
   1423.18909     730.9892     507.8772   1423.18909     730.9892     507.8772
   1423.17383     730.8528     507.4623   1423.17383     730.8528     507.4623
   1423.15857     730.3570     507.5422   1423.15857     730.3570     507.5422
   1423.14331     730.5211     506.7117   1423.14331     730.5211     506.7117
   1423.12805     730.8488     505.8026   1423.12805     730.8488     505.8026
   1423.11279     728.8395     504.7522   1423.11279     728.8395     504.7522
   1423.09753     728.6012     506.3938   1423.09753     728.6012     506.3938
   1423.08228     726.6011     505.0816   1423.08228     726.6011     505.0816
   1423.06702     727.1512     504.5841   1423.06702     727.1512     504.5841
   1423.05176     726.7827     503.9900   1423.05176     726.7827     503.9900
   1423.03650     726.1570     503.8820   1423.03650     726.1570     503.8820
   1423.02124     725.2990     502.7242   1423.02124     725.2990     502.7242
   1423.00598     725.1047     502.6666   1423.00598     725.1047     502.6666
   1422.99072     724.9105     502.0859   1422.99072     724.9105     502.0859
   1422.97546     723.6306     501.4087   1422.97546     723.6306     501.4087
   1422.96021     723.2071     501.3204   1422.96021     723.2071     501.3204
   1422.94495     724.1804     501.0555   1422.94495     724.1804     501.0555
   1422.92969     723.0137     500.1405   1422.92969     723.0137     500.1405
   1422.91443     721.2166     499.4779   1422.91443     721.2166     499.4779
   1422.89917     721.1758     498.4434   1422.89917     721.1758     498.4434
   1422.88391     721.3046     498.1075   1422.88391     721.3046     498.1075
   1422.86865     720.3364     498.2348   1422.86865     720.3364     498.2348
   1422.85339     719.7564     497.1125   1422.85339     719.7564     497.1125
   1422.83813     719.2087     496.0448   1422.83813     719.2087     496.0448
   1422.82288     718.6534     496.1456   1422.82288     718.6534     496.1456
   1422.80762     717.4183     494.6409   1422.80762     717.4183     494.6409
   1422.79236     718.2592     494.7502   1422.79236     718.2592     494.7502
   1422.77710     717.7330     493.3450   1422.77710     717.7330     493.3450
   1422.76184     717.0746     493.3088   1422.76184     717.0746     493.3088
   1422.74658     717.0523     492.6376   1422.74658     717.0523     492.6376
   1422.73132     716.8995     492.5732   1422.73132     716.8995     492.5732
   1422.71606     715.9618     491.7997   1422.71606     715.9618     491.7997
   1422.70081     715.1894     490.8296   1422.70081     715.1894     490.8296
   1422.68555     715.0517     490.2168   1422.68555     715.0517     490.2168
   1422.67029     714.6622     489.4373   1422.67029     714.6622     489.4373
   1422.65503     714.2468     488.6252   1422.65503     714.2468     488.6252
   1422.63977     713.5284     488.0988   1422.63977     713.5284     488.0988
   1422.62451     713.1968     486.3649   1422.62451     713.1968     486.3649
   1422.60925     712.8156     486.5248   1422.60925     712.8156     486.5248
   1422.59399     711.2712     485.5449   1422.59399     711.2712     485.5449
   1422.57874     712.2462     484.7666   1422.57874     712.2462     484.7666
   1422.56348     712.6526     484.3824   1422.56348     712.6526     484.3824
   1422.54822     712.1098     483.1806   1422.54822     712.1098     483.1806
   1422.53296     711.2577     482.5196   1422.53296     711.2577     482.5196
   1422.51770     710.3153     482.1305   1422.51770     710.3153     482.1305
   1422.50244     709.8407     480.9070   1422.50244     709.8407     480.9070
   1422.48718     709.2333     480.9652   1422.48718     709.2333     480.9652
   1422.47192     709.6946     479.8834   1422.47192     709.6946     479.8834
   1422.45667     710.0530     479.5461   1422.45667     710.0530     479.5461
   1422.44141     709.3026     478.3806   1422.44141     709.3026     478.3806
   1422.42615     709.4032     476.7002   1422.42615     709.4032     476.7002
   1422.41089     708.1633     476.3311   1422.41089     708.1633     476.3311
   1422.39563     709.4067     475.4163   1422.39563     709.4067     475.4163
   1422.38037     707.4410     474.2063   1422.38037     707.4410     474.2063
   1422.36511     707.5440     474.8431   1422.36511     707.5440     474.8431
   1422.34985     708.9465     473.0459   1422.34985     708.9465     473.0459
   1422.33459     707.0905     472.1829   1422.33459     707.0905     472.1829
   1422.31934     708.0435     471.5220   1422.31934     708.0435     471.5220
   1422.30408     706.8746     470.1474   1422.30408     706.8746     470.1474
   1422.28882     706.4578     469.0690   1422.28882     706.4578     469.0690
   1422.27356     706.4262     469.0092   1422.27356     706.4262     469.0092
   1422.25830     706.2870     467.8121   1422.25830     706.2870     467.8121
   1422.24304     706.5898     467.3358   1422.24304     706.5898     467.3358
   1422.22778     706.7233     465.5032   1422.22778     706.7233     465.5032
   1422.21252     705.7864     465.2084   1422.21252     705.7864     465.2084
   1422.19727     705.8696     464.8300   1422.19727     705.8696     464.8300
   1422.18201     704.1960     463.3249   1422.18201     704.1960     463.3249
   1422.16675     704.8774     462.8980   1422.16675     704.8774     462.8980
   1422.15149     705.5876     461.4531   1422.15149     705.5876     461.4531
   1422.13623     704.1382     460.6279   1422.13623     704.1382     460.6279
   1422.12097     705.4907     458.9802   1422.12097     705.4907     458.9802
   1422.10571     704.2258     458.6908   1422.10571     704.2258     458.6908
   1422.09045     704.6861     457.5134   1422.09045     704.6861     457.5134
   1422.07520     704.2865     456.5845   1422.07520     704.2865     456.5845
   1422.05994     703.0996     456.0443   1422.05994     703.0996     456.0443
   1422.04468     703.3944     454.9585   1422.04468     703.3944     454.9585
   1422.02942     703.1758     453.5103   1422.02942     703.1758     453.5103
   1422.01416     703.0462     453.1357   1422.01416     703.0462     453.1357
   1421.99890     704.9318     452.5735   1421.99890     704.9318     452.5735
   1421.98364     702.8867     450.7696   1421.98364     702.8867     450.7696
   1421.96838     702.0494     450.0662   1421.96838     702.0494     450.0662
   1421.95312     702.5089     449.3912   1421.95312     702.5089     449.3912
   1421.93787     701.3688     447.7529   1421.93787     701.3688     447.7529
   1421.92261     702.6390     447.0342   1421.92261     702.6390     447.0342
   1421.90735     701.6768     445.5768   1421.90735     701.6768     445.5768
   1421.89209     701.3922     445.1165   1421.89209     701.3922     445.1165
   1421.87683     702.7194     444.2043   1421.87683     702.7194     444.2043
   1421.86157     701.7172     443.1139   1421.86157     701.7172     443.1139
   1421.84631     701.2006     442.0600   1421.84631     701.2006     442.0600
   1421.83105     701.5490     441.0832   1421.83105     701.5490     441.0832
   1421.81580     700.4348     440.0424   1421.81580     700.4348     440.0424
   1421.80054     701.1788     439.5439   1421.80054     701.1788     439.5439
   1421.78528     700.2861     437.9817   1421.78528     700.2861     437.9817
   1421.77002     701.4216     437.1482   1421.77002     701.4216     437.1482
   1421.75476     700.2926     435.7769   1421.75476     700.2926     435.7769
   1421.73950     700.6574     434.9461   1421.73950     700.6574     434.9461
   1421.72424     700.6652     433.7261   1421.72424     700.6652     433.7261
   1421.70898     701.1039     432.8895   1421.70898     701.1039     432.8895
   1421.69373     699.6141     431.6223   1421.69373     699.6141     431.6223
   1421.67847     700.0371     431.1688   1421.67847     700.0371     431.1688
   1421.66321     698.8745     429.3339   1421.66321     698.8745     429.3339
   1421.64795     699.7609     428.6212   1421.64795     699.7609     428.6212
   1421.63269     699.8973     427.6936   1421.63269     699.8973     427.6936
   1421.61743     699.0474     427.0165   1421.61743     699.0474     427.0165
   1421.60217     698.5390     425.9359   1421.60217     698.5390     425.9359
   1421.58691     698.6229     425.3852   1421.58691     698.6229     425.3852
   1421.57166     698.5562     423.2914   1421.57166     698.5562     423.2914
   1421.55640     698.7076     422.3302   1421.55640     698.7076     422.3302
   1421.54114     697.9603     421.5307   1421.54114     697.9603     421.5307
   1421.52588     697.4559     420.8480   1421.52588     697.4559     420.8480
   1421.51062     697.8750     419.9965   1421.51062     697.8750     419.9965
   1421.49536     697.5491     419.2957   1421.49536     697.5491     419.2957
   1421.48010     697.2925     417.7707   1421.48010     697.2925     417.7707
   1421.46484     697.8084     416.8793   1421.46484     697.8084     416.8793
   1421.44958     697.0398     415.8487   1421.44958     697.0398     415.8487
   1421.43433     698.4625     414.7388   1421.43433     698.4625     414.7388
   1421.41907     697.4214     413.5327   1421.41907     697.4214     413.5327
   1421.40381     696.7607     412.3602   1421.40381     696.7607     412.3602
   1421.38855     697.1066     411.3072   1421.38855     697.1066     411.3072
   1421.37329     696.7748     410.2727   1421.37329     696.7748     410.2727
   1421.35803     696.3973     409.9841   1421.35803     696.3973     409.9841
   1421.34277     695.6001     408.6671   1421.34277     695.6001     408.6671
   1421.32751     695.7817     407.1040   1421.32751     695.7817     407.1040
   1421.31226     697.1766     406.8218   1421.31226     697.1766     406.8218
   1421.29700     695.5043     405.7502   1421.29700     695.5043     405.7502
   1421.28174     695.8491     404.2874   1421.28174     695.8491     404.2874
   1421.26648     695.0251     403.0967   1421.26648     695.0251     403.0967
   1421.25122     695.1703     401.8714   1421.25122     695.1703     401.8714
   1421.23596     694.8889     401.4545   1421.23596     694.8889     401.4545
   1421.22070     694.9860     400.4549   1421.22070     694.9860     400.4549
   1421.20544     694.4169     399.5238   1421.20544     694.4169     399.5238
   1421.19019     693.9859     398.7387   1421.19019     693.9859     398.7387
   1421.17493     694.3134     397.5197   1421.17493     694.3134     397.5197
   1421.15967     694.3003     396.2660   1421.15967     694.3003     396.2660
   1421.14441     695.2906     395.8170   1421.14441     695.2906     395.8170
   1421.12915     693.7508     394.3430   1421.12915     693.7508     394.3430
   1421.11389     692.4707     394.2183   1421.11389     692.4707     394.2183
   1421.09863     694.1901     392.7185   1421.09863     694.1901     392.7185
   1421.08337     693.4930     392.5282   1421.08337     693.4930     392.5282
   1421.06812     693.6542     391.3625   1421.06812     693.6542     391.3625
   1421.05286     693.3614     389.9310   1421.05286     693.3614     389.9310
   1421.03760     691.8195     389.2278   1421.03760     691.8195     389.2278
   1421.02234     692.4696     388.0179   1421.02234     692.4696     388.0179
   1421.00708     693.3632     387.4671   1421.00708     693.3632     387.4671
   1420.99182     692.9883     386.6899   1420.99182     692.9883     386.6899
   1420.97656     693.0262     386.1693   1420.97656     693.0262     386.1693
   1420.96130     692.8978     384.5803   1420.96130     692.8978     384.5803
   1420.94604     692.8720     383.4882   1420.94604     692.8720     383.4882
   1420.93079     691.6933     382.6739   1420.93079     691.6933     382.6739
   1420.91553     692.2602     382.3718   1420.91553     692.2602     382.3718
   1420.90027     693.3602     381.9754   1420.90027     693.3602     381.9754
   1420.88501     693.5934     380.8749   1420.88501     693.5934     380.8749
   1420.86975     693.1085     379.9883   1420.86975     693.1085     379.9883
   1420.85449     693.6089     379.6375   1420.85449     693.6089     379.6375
   1420.83923     694.0637     378.8028   1420.83923     694.0637     378.8028
   1420.82397     694.4626     378.5910   1420.82397     694.4626     378.5910
   1420.80872     695.2485     377.7752   1420.80872     695.2485     377.7752
   1420.79346     695.5307     377.8070   1420.79346     695.5307     377.8070
   1420.77820     694.8597     377.0377   1420.77820     694.8597     377.0377
   1420.76294     695.9021     376.2101   1420.76294     695.9021     376.2101
   1420.74768     696.8141     375.4880   1420.74768     696.8141     375.4880
   1420.73242     696.5620     375.3860   1420.73242     696.5620     375.3860
   1420.71716     696.9449     374.1313   1420.71716     696.9449     374.1313
   1420.70190     697.7134     373.6852   1420.70190     697.7134     373.6852
   1420.68665     696.7836     373.2077   1420.68665     696.7836     373.2077
   1420.67139     696.9926     372.4341   1420.67139     696.9926     372.4341
   1420.65613     696.7233     372.1562   1420.65613     696.7233     372.1562
   1420.64087     696.9661     371.1746   1420.64087     696.9661     371.1746
   1420.62561     697.5111     370.3637   1420.62561     697.5111     370.3637
   1420.61035     697.5211     369.4935   1420.61035     697.5211     369.4935
   1420.59509     698.6699     368.9023   1420.59509     698.6699     368.9023
   1420.57983     699.9060     369.0428   1420.57983     699.9060     369.0428
   1420.56458     699.3149     368.5356   1420.56458     699.3149     368.5356
   1420.54932     700.7089     368.3262   1420.54932     700.7089     368.3262
   1420.53406     702.8555     367.8595   1420.53406     702.8555     367.8595
   1420.51880     702.2482     367.5283   1420.51880     702.2482     367.5283
   1420.50354     702.4708     366.8595   1420.50354     702.4708     366.8595
   1420.48828     701.9836     366.8190   1420.48828     701.9836     366.8190
   1420.47302     702.4706     366.0368   1420.47302     702.4706     366.0368
   1420.45776     703.0128     364.9061   1420.45776     703.0128     364.9061
   1420.44250     703.3648     366.1462   1420.44250     703.3648     366.1462
   1420.42725     706.7440     365.8548   1420.42725     706.7440     365.8548
   1420.41199     710.0779     367.2455   1420.41199     710.0779     367.2455
   1420.39673     714.4611     368.9817   1420.39673     714.4611     368.9817
   1420.38147     726.4954     373.4602   1420.38147     726.4954     373.4602
   1420.36621     745.5147     382.7135   1420.36621     745.5147     382.7135
   1420.35095     787.6546     402.1290   1420.35095     787.6546     402.1290
   1420.33569     875.7226     445.4877   1420.33569     875.7226     445.4877
   1420.32043    1080.5548     545.1199   1420.32043    1080.5548     545.1199
   1420.30518    1377.9099     690.3378   1420.30518    1377.9099     690.3378
   1420.28992    1595.0499     797.3703   1420.28992    1595.0499     797.3703
   1420.27466    1890.0748     940.7258   1420.27466    1890.0748     940.7258
   1420.25940    2223.6653    1104.4907   1420.25940    2223.6653    1104.4907
   1420.24414    2427.9829    1203.9712   1420.24414    2427.9829    1203.9712
   1420.22888    2574.4731    1270.5377   1420.22888    2574.4731    1270.5377
   1420.21362    2529.6194    1245.6052   1420.21362    2529.6194    1245.6052
   1420.19836    2467.5076    1213.6558   1420.19836    2467.5076    1213.6558
   1420.18311    2208.6462    1086.4814   1420.18311    2208.6462    1086.4814
   1420.16785    2005.8391     985.0616   1420.16785    2005.8391     985.0616
   1420.15259    1849.6073     907.2416   1420.15259    1849.6073     907.2416
   1420.13733    1524.5314     747.8387   1420.13733    1524.5314     747.8387
   1420.12207    1159.2716     571.5602   1420.12207    1159.2716     571.5602
   1420.10681     934.3340     463.0548   1420.10681     934.3340     463.0548
   1420.09155     816.8759     407.6927   1420.09155     816.8759     407.6927
   1420.07629     757.2891     378.7101   1420.07629     757.2891     378.7101
   1420.06104     726.0214     362.0307   1420.06104     726.0214     362.0307
   1420.04578     707.8997     353.8644   1420.04578     707.8997     353.8644
   1420.03052     698.3560     348.9349   1420.03052     698.3560     348.9349
   1420.01526     694.5746     346.7610   1420.01526     694.5746     346.7610
   1420.00000     693.5179     345.3011   1420.00000     693.5179     345.3011
   1419.98474     692.4607     343.8412   1419.98474     692.4607     343.8412
   1419.96948     688.6848     341.8355   1419.96948     688.6848     341.8355
   1419.95422     686.3088     340.5840   1419.95422     686.3088     340.5840
   1419.93896     684.9377     339.7983   1419.93896     684.9377     339.7983
   1419.92371     684.3538     339.4064   1419.92371     684.3538     339.4064
   1419.90845     684.1796     338.9202   1419.90845     684.1796     338.9202
   1419.89319     684.2762     337.9194   1419.89319     684.2762     337.9194
   1419.87793     683.8558     337.7654   1419.87793     683.8558     337.7654
   1419.86267     683.5497     336.8676   1419.86267     683.5497     336.8676
   1419.84741     684.0764     336.6193   1419.84741     684.0764     336.6193
   1419.83215     683.8577     336.0915   1419.83215     683.8577     336.0915
   1419.81689     684.8206     336.3663   1419.81689     684.8206     336.3663
   1419.80164     683.4046     335.6269   1419.80164     683.4046     335.6269
   1419.78638     684.2907     335.3891   1419.78638     684.2907     335.3891
   1419.77112     683.3377     334.7416   1419.77112     683.3377     334.7416
   1419.75586     684.8612     334.4305   1419.75586     684.8612     334.4305
   1419.74060     682.7679     334.0614   1419.74060     682.7679     334.0614
   1419.72534     684.1394     333.8498   1419.72534     684.1394     333.8498
   1419.71008     683.5276     334.0682   1419.71008     683.5276     334.0682
   1419.69482     683.7517     333.3878   1419.69482     683.7517     333.3878
   1419.67957     683.7987     332.9279   1419.67957     683.7987     332.9279
   1419.66431     683.8731     332.5612   1419.66431     683.8731     332.5612
   1419.64905     683.7460     332.9336   1419.64905     683.7460     332.9336
   1419.63379     684.5102     333.0721   1419.63379     684.5102     333.0721
   1419.61853     683.2646     332.0304   1419.61853     683.2646     332.0304
   1419.60327     684.1956     332.4096   1419.60327     684.1956     332.4096
   1419.58801     684.2849     331.3124   1419.58801     684.2849     331.3124
   1419.57275     685.1485     331.8331   1419.57275     685.1485     331.8331
   1419.55750     685.6010     331.6779   1419.55750     685.6010     331.6779
   1419.54224     685.0145     331.5782   1419.54224     685.0145     331.5782
   1419.52698     683.8575     331.5336   1419.52698     683.8575     331.5336
   1419.51172     685.4930     331.0416   1419.51172     685.4930     331.0416
   1419.49646     685.2907     331.1364   1419.49646     685.2907     331.1364
   1419.48120     686.9003     331.3474   1419.48120     686.9003     331.3474
   1419.46594     686.3833     330.9875   1419.46594     686.3833     330.9875
   1419.45068     685.9413     330.5125   1419.45068     685.9413     330.5125
   1419.43542     687.0313     330.8213   1419.43542     687.0313     330.8213
   1419.42017     687.4312     331.0240   1419.42017     687.4312     331.0240
   1419.40491     687.2453     330.9069   1419.40491     687.2453     330.9069
   1419.38965     687.1235     330.8564   1419.38965     687.1235     330.8564
   1419.37439     688.1294     331.2618   1419.37439     688.1294     331.2618
   1419.35913     688.2344     330.4539   1419.35913     688.2344     330.4539
   1419.34387     687.4102     330.7592   1419.34387     687.4102     330.7592
   1419.32861     689.2245     330.7759   1419.32861     689.2245     330.7759
   1419.31335     689.1035     330.9926   1419.31335     689.1035     330.9926
   1419.29810     689.6705     330.6943   1419.29810     689.6705     330.6943
   1419.28284     690.6422     331.0724   1419.28284     690.6422     331.0724
   1419.26758     690.4894     331.1244   1419.26758     690.4894     331.1244
   1419.25232     690.0785     330.6441   1419.25232     690.0785     330.6441
   1419.23706     690.8369     330.9554   1419.23706     690.8369     330.9554
   1419.22180     690.1547     330.9696   1419.22180     690.1547     330.9696
   1419.20654     690.0766     331.4792   1419.20654     690.0766     331.4792
   1419.19128     691.5391     331.4430   1419.19128     691.5391     331.4430
   1419.17603     691.7236     331.0878   1419.17603     691.7236     331.0878
   1419.16077     693.0458     331.3782   1419.16077     693.0458     331.3782
   1419.14551     692.1635     331.7242   1419.14551     692.1635     331.7242
   1419.13025     692.7028     331.8628   1419.13025     692.7028     331.8628
   1419.11499     692.6922     332.1701   1419.11499     692.6922     332.1701
   1419.09973     693.4933     332.3429   1419.09973     693.4933     332.3429
   1419.08447     694.4354     332.4119   1419.08447     694.4354     332.4119
   1419.06921     694.1397     332.5886   1419.06921     694.1397     332.5886
   1419.05396     695.3763     332.3185   1419.05396     695.3763     332.3185
   1419.03870     696.9769     333.0849   1419.03870     696.9769     333.0849
   1419.02344     695.6828     333.0414   1419.02344     695.6828     333.0414
   1419.00818     695.6005     333.0713   1419.00818     695.6005     333.0713
   1418.99292     696.0018     334.2326   1418.99292     696.0018     334.2326
   1418.97766     696.6904     333.2731   1418.97766     696.6904     333.2731
   1418.96240     697.6022     334.2174   1418.96240     697.6022     334.2174
   1418.94714     697.1442     334.7079   1418.94714     697.1442     334.7079
   1418.93188     698.7716     334.6278   1418.93188     698.7716     334.6278
   1418.91663     697.6313     335.0522   1418.91663     697.6313     335.0522
   1418.90137     699.3327     335.4107   1418.90137     699.3327     335.4107
   1418.88611     698.7231     335.4593   1418.88611     698.7231     335.4593
   1418.87085     700.0665     335.7183   1418.87085     700.0665     335.7183
   1418.85559     700.5220     336.6202   1418.85559     700.5220     336.6202
   1418.84033     700.1729     336.5494   1418.84033     700.1729     336.5494
   1418.82507     700.9908     336.8677   1418.82507     700.9908     336.8677
   1418.80981     701.5364     337.0932   1418.80981     701.5364     337.0932
   1418.79456     702.7433     337.4706   1418.79456     702.7433     337.4706
   1418.77930     703.3043     337.9190   1418.77930     703.3043     337.9190
   1418.76404     704.1572     338.0020   1418.76404     704.1572     338.0020
   1418.74878     703.4052     338.5933   1418.74878     703.4052     338.5933
   1418.73352     705.5763     339.3427   1418.73352     705.5763     339.3427
   1418.71826     703.9347     339.8790   1418.71826     703.9347     339.8790
   1418.70300     705.8777     339.9383   1418.70300     705.8777     339.9383
   1418.68774     706.2564     340.1965   1418.68774     706.2564     340.1965
   1418.67249     706.7759     340.3233   1418.67249     706.7759     340.3233
   1418.65723     707.2263     341.1261   1418.65723     707.2263     341.1261
   1418.64197     708.5554     342.4308   1418.64197     708.5554     342.4308
   1418.62671     708.6456     342.1183   1418.62671     708.6456     342.1183
   1418.61145     709.4493     343.0585   1418.61145     709.4493     343.0585
   1418.59619     710.7935     343.1135   1418.59619     710.7935     343.1135
   1418.58093     710.6565     343.9297   1418.58093     710.6565     343.9297
   1418.56567     710.8901     344.5265   1418.56567     710.8901     344.5265
   1418.55042     712.7625     345.0033   1418.55042     712.7625     345.0033
   1418.53516     712.3430     345.4639   1418.53516     712.3430     345.4639
   1418.51990     713.0377     345.7827   1418.51990     713.0377     345.7827
   1418.50464     713.2340     346.2838   1418.50464     713.2340     346.2838
   1418.48938     714.3985     347.5396   1418.48938     714.3985     347.5396
   1418.47412     715.8276     347.6228   1418.47412     715.8276     347.6228
   1418.45886     715.9664     348.0532   1418.45886     715.9664     348.0532
   1418.44360     714.9570     349.1912   1418.44360     714.9570     349.1912
   1418.42834     717.2921     349.5741   1418.42834     717.2921     349.5741
   1418.41309     717.6801     350.2964   1418.41309     717.6801     350.2964
   1418.39783     717.8878     350.7315   1418.39783     717.8878     350.7315
   1418.38257     719.0479     350.9082   1418.38257     719.0479     350.9082
   1418.36731     720.3776     352.1744   1418.36731     720.3776     352.1744
   1418.35205     720.1734     352.3676   1418.35205     720.1734     352.3676
   1418.33679     721.3273     353.7269   1418.33679     721.3273     353.7269
   1418.32153     720.9476     354.5215   1418.32153     720.9476     354.5215
   1418.30627     722.6742     354.7729   1418.30627     722.6742     354.7729
   1418.29102     723.3382     355.8696   1418.29102     723.3382     355.8696
   1418.27576     723.4383     356.4466   1418.27576     723.4383     356.4466
   1418.26050     724.3414     356.7933   1418.26050     724.3414     356.7933
   1418.24524     724.5482     357.6067   1418.24524     724.5482     357.6067
   1418.22998     725.9920     358.5762   1418.22998     725.9920     358.5762
   1418.21472     726.2953     359.2670   1418.21472     726.2953     359.2670
   1418.19946     726.9460     359.8650   1418.19946     726.9460     359.8650
   1418.18420     728.3194     360.8496   1418.18420     728.3194     360.8496
   1418.16895     729.2404     361.0561   1418.16895     729.2404     361.0561
   1418.15369     728.3087     361.8917   1418.15369     728.3087     361.8917
   1418.13843     730.0764     362.9648   1418.13843     730.0764     362.9648
   1418.12317     730.0143     363.8672   1418.12317     730.0143     363.8672
   1418.10791     730.7430     364.2446   1418.10791     730.7430     364.2446
   1418.09265     732.6011     365.0471   1418.09265     732.6011     365.0471
   1418.07739     733.5414     366.2574   1418.07739     733.5414     366.2574
   1418.06213     733.6746     367.5208   1418.06213     733.6746     367.5208
   1418.04688     734.3856     368.3649   1418.04688     734.3856     368.3649
   1418.03162     735.2162     368.7169   1418.03162     735.2162     368.7169
   1418.01636     736.6751     370.1098   1418.01636     736.6751     370.1098
   1418.00110     737.4389     371.7700   1418.00110     737.4389     371.7700
   1417.98584     736.7474     371.9143   1417.98584     736.7474     371.9143
   1417.97058     739.3263     372.7670   1417.97058     739.3263     372.7670
   1417.95532     739.5640     373.7446   1417.95532     739.5640     373.7446
   1417.94006     740.1151     374.7168   1417.94006     740.1151     374.7168
   1417.92480     742.9427     376.7374   1417.92480     742.9427     376.7374
   1417.90955     741.9620     376.6235   1417.90955     741.9620     376.6235
   1417.89429     742.7569     378.1900   1417.89429     742.7569     378.1900
   1417.87903     744.2242     378.2691   1417.87903     744.2242     378.2691
   1417.86377     744.3423     379.1891   1417.86377     744.3423     379.1891
   1417.84851     745.7016     380.4445   1417.84851     745.7016     380.4445
   1417.83325     747.2726     381.6468   1417.83325     747.2726     381.6468
   1417.81799     747.2091     382.1803   1417.81799     747.2091     382.1803
   1417.80273     748.8152     383.6996   1417.80273     748.8152     383.6996
   1417.78748     748.4125     384.6363   1417.78748     748.4125     384.6363
   1417.77222     748.9850     385.1909   1417.77222     748.9850     385.1909
   1417.75696     750.8913     386.4984   1417.75696     750.8913     386.4984
   1417.74170     751.1331     388.0621   1417.74170     751.1331     388.0621
   1417.72644     751.4012     388.6595   1417.72644     751.4012     388.6595
   1417.71118     753.0190     390.1443   1417.71118     753.0190     390.1443
   1417.69592     754.0831     390.3318   1417.69592     754.0831     390.3318
   1417.68066     754.6731     391.8518   1417.68066     754.6731     391.8518
   1417.66541     755.3055     392.7350   1417.66541     755.3055     392.7350
   1417.65015     755.5717     394.1465   1417.65015     755.5717     394.1465
   1417.63489     757.1376     394.9998   1417.63489     757.1376     394.9998
   1417.61963     757.6844     396.4253   1417.61963     757.6844     396.4253
   1417.60437     758.9626     396.8523   1417.60437     758.9626     396.8523
   1417.58911     759.1805     398.4029   1417.58911     759.1805     398.4029
   1417.57385     761.1370     398.9472   1417.57385     761.1370     398.9472
   1417.55859     762.0062     400.3335   1417.55859     762.0062     400.3335
   1417.54333     762.4456     401.3380   1417.54333     762.4456     401.3380
   1417.52808     763.3478     402.4785   1417.52808     763.3478     402.4785
   1417.51282     764.3161     404.0541   1417.51282     764.3161     404.0541
   1417.49756     764.8142     404.8260   1417.49756     764.8142     404.8260
   1417.48230     765.7808     406.1398   1417.48230     765.7808     406.1398
   1417.46704     766.6992     407.4923   1417.46704     766.6992     407.4923
   1417.45178     767.8570     408.1503   1417.45178     767.8570     408.1503
   1417.43652     767.9878     410.2669   1417.43652     767.9878     410.2669
   1417.42126     769.5944     410.3558   1417.42126     769.5944     410.3558
   1417.40601     770.0306     411.8021   1417.40601     770.0306     411.8021
   1417.39075     770.3197     413.0264   1417.39075     770.3197     413.0264
   1417.37549     772.0409     414.6043   1417.37549     772.0409     414.6043
   1417.36023     773.5598     415.5373   1417.36023     773.5598     415.5373
   1417.34497     773.4025     416.4445   1417.34497     773.4025     416.4445
   1417.32971     775.7415     418.4301   1417.32971     775.7415     418.4301
   1417.31445     775.2122     419.4101   1417.31445     775.2122     419.4101
   1417.29919     775.7021     420.0800   1417.29919     775.7021     420.0800
   1417.28394     777.5112     421.7939   1417.28394     777.5112     421.7939
   1417.26868     778.8934     422.8072   1417.26868     778.8934     422.8072
   1417.25342     778.9882     423.0197   1417.25342     778.9882     423.0197
   1417.23816     779.1814     424.8233   1417.23816     779.1814     424.8233
   1417.22290     781.4153     426.8762   1417.22290     781.4153     426.8762
   1417.20764     779.8852     427.0660   1417.20764     779.8852     427.0660
   1417.19238     781.5571     428.2285   1417.19238     781.5571     428.2285
   1417.17712     782.6704     429.8135   1417.17712     782.6704     429.8135
   1417.16187     781.7378     431.0687   1417.16187     781.7378     431.0687
   1417.14661     782.7681     431.4865   1417.14661     782.7681     431.4865
   1417.13135     785.4974     433.1313   1417.13135     785.4974     433.1313
   1417.11609     785.8302     435.1176   1417.11609     785.8302     435.1176
   1417.10083     784.7596     435.5431   1417.10083     784.7596     435.5431
   1417.08557     785.4521     436.3043   1417.08557     785.4521     436.3043
   1417.07031     788.0175     437.2617   1417.07031     788.0175     437.2617
   1417.05505     788.7123     439.2230   1417.05505     788.7123     439.2230
   1417.03979     788.7761     439.7020   1417.03979     788.7761     439.7020
   1417.02454     789.0159     440.6875   1417.02454     789.0159     440.6875
   1417.00928     789.6422     442.2148   1417.00928     789.6422     442.2148
   1416.99402     789.8478     442.5739   1416.99402     789.8478     442.5739
   1416.97876     790.5078     444.0936   1416.97876     790.5078     444.0936
   1416.96350     792.3053     445.0656   1416.96350     792.3053     445.0656
   1416.94824     793.4089     445.5883   1416.94824     793.4089     445.5883
   1416.93298     794.2667     446.8176   1416.93298     794.2667     446.8176
   1416.91772     794.2637     448.1628   1416.91772     794.2637     448.1628
   1416.90247     796.0634     449.7115   1416.90247     796.0634     449.7115
   1416.88721     794.3527     450.1942   1416.88721     794.3527     450.1942
   1416.87195     795.9307     451.2916   1416.87195     795.9307     451.2916
   1416.85669     795.9413     452.6553   1416.85669     795.9413     452.6553
   1416.84143     796.6335     453.2340   1416.84143     796.6335     453.2340
   1416.82617     797.8302     454.2336   1416.82617     797.8302     454.2336
   1416.81091     797.0165     455.0842   1416.81091     797.0165     455.0842
   1416.79565     797.6516     455.8883   1416.79565     797.6516     455.8883
   1416.78040     798.9658     457.0720   1416.78040     798.9658     457.0720
   1416.76514     799.0585     457.3398   1416.76514     799.0585     457.3398
   1416.74988     797.9740     458.4883   1416.74988     797.9740     458.4883
   1416.73462     799.1442     459.0186   1416.73462     799.1442     459.0186
   1416.71936     800.5101     460.2451   1416.71936     800.5101     460.2451
   1416.70410     800.9971     460.4387   1416.70410     800.9971     460.4387
   1416.68884     801.3585     462.0167   1416.68884     801.3585     462.0167
   1416.67358     801.8208     462.0419   1416.67358     801.8208     462.0419
   1416.65833     803.4318     463.0322   1416.65833     803.4318     463.0322
   1416.64307     801.5457     463.4239   1416.64307     801.5457     463.4239
   1416.62781     801.7122     464.5919   1416.62781     801.7122     464.5919
   1416.61255     802.5742     465.6690   1416.61255     802.5742     465.6690
   1416.59729     801.6960     465.7769   1416.59729     801.6960     465.7769
   1416.58203     801.6605     466.0107   1416.58203     801.6605     466.0107
   1416.56677     803.1985     466.8545   1416.56677     803.1985     466.8545
   1416.55151     803.0646     467.2873   1416.55151     803.0646     467.2873
   1416.53625     805.4880     468.3477   1416.53625     805.4880     468.3477
   1416.52100     804.0873     468.1441   1416.52100     804.0873     468.1441
   1416.50574     804.3855     468.8249   1416.50574     804.3855     468.8249
   1416.49048     803.9368     469.0311   1416.49048     803.9368     469.0311
   1416.47522     803.6978     469.9930   1416.47522     803.6978     469.9930
   1416.45996     803.0441     469.9066   1416.45996     803.0441     469.9066
   1416.44470     804.1577     470.3732   1416.44470     804.1577     470.3732
   1416.42944     804.9642     470.0598   1416.42944     804.9642     470.0598
   1416.41418     805.0152     471.3182   1416.41418     805.0152     471.3182
   1416.39893     805.1656     471.8894   1416.39893     805.1656     471.8894
   1416.38367     804.4219     471.9478   1416.38367     804.4219     471.9478
   1416.36841     804.7411     472.6696   1416.36841     804.7411     472.6696
   1416.35315     805.9698     472.6446   1416.35315     805.9698     472.6446
   1416.33789     804.6611     472.1536   1416.33789     804.6611     472.1536
   1416.32263     804.3659     473.0920   1416.32263     804.3659     473.0920
   1416.30737     805.2831     473.0988   1416.30737     805.2831     473.0988
   1416.29211     804.8290     474.1311   1416.29211     804.8290     474.1311
   1416.27686     804.1736     473.0909   1416.27686     804.1736     473.0909
   1416.26160     803.9172     473.2667   1416.26160     803.9172     473.2667
   1416.24634     803.1280     472.8902   1416.24634     803.1280     472.8902
   1416.23108     804.0253     474.0634   1416.23108     804.0253     474.0634
   1416.21582     804.5306     473.7186   1416.21582     804.5306     473.7186
   1416.20056     803.5490     473.1818   1416.20056     803.5490     473.1818
   1416.18530     802.9445     473.9306   1416.18530     802.9445     473.9306
   1416.17004     801.8494     474.0721   1416.17004     801.8494     474.0721
   1416.15479     802.0607     473.2270   1416.15479     802.0607     473.2270
   1416.13953     802.0887     473.6506   1416.13953     802.0887     473.6506
   1416.12427     801.7247     474.1968   1416.12427     801.7247     474.1968
   1416.10901     802.6773     473.8429   1416.10901     802.6773     473.8429
   1416.09375     801.2072     473.4125   1416.09375     801.2072     473.4125
   1416.07849     801.3188     473.6207   1416.07849     801.3188     473.6207
   1416.06323     800.9286     473.9178   1416.06323     800.9286     473.9178
   1416.04797     800.2480     473.2898   1416.04797     800.2480     473.2898
   1416.03271     799.6265     473.5399   1416.03271     799.6265     473.5399
   1416.01746     799.7559     473.0280   1416.01746     799.7559     473.0280
   1416.00220     798.4483     473.0977   1416.00220     798.4483     473.0977
   1415.98694     798.7396     472.5251   1415.98694     798.7396     472.5251
   1415.97168     798.5617     472.4199   1415.97168     798.5617     472.4199
   1415.95642     798.3030     472.6394   1415.95642     798.3030     472.6394
   1415.94116     797.3104     472.3416   1415.94116     797.3104     472.3416
   1415.92590     796.7566     471.7641   1415.92590     796.7566     471.7641
   1415.91064     796.6934     472.0041   1415.91064     796.6934     472.0041
   1415.89539     795.2240     471.7426   1415.89539     795.2240     471.7426
   1415.88013     795.5674     471.5248   1415.88013     795.5674     471.5248
   1415.86487     795.4620     471.3083   1415.86487     795.4620     471.3083
   1415.84961     795.2015     470.6857   1415.84961     795.2015     470.6857
   1415.83435     794.4101     471.0400   1415.83435     794.4101     471.0400
   1415.81909     793.5959     470.1013   1415.81909     793.5959     470.1013
   1415.80383     792.8629     470.1514   1415.80383     792.8629     470.1514
   1415.78857     791.0665     468.7132   1415.78857     791.0665     468.7132
   1415.77332     790.5530     469.5661   1415.77332     790.5530     469.5661
   1415.75806     789.9187     468.8238   1415.75806     789.9187     468.8238
   1415.74280     789.7080     468.4285   1415.74280     789.7080     468.4285
   1415.72754     789.1489     467.8246   1415.72754     789.1489     467.8246
   1415.71228     788.5339     467.8650   1415.71228     788.5339     467.8650
   1415.69702     789.0123     466.9767   1415.69702     789.0123     466.9767
   1415.68176     786.2320     467.0326   1415.68176     786.2320     467.0326
   1415.66650     786.6011     466.5192   1415.66650     786.6011     466.5192
   1415.65125     784.8978     466.9464   1415.65125     784.8978     466.9464
   1415.63599     784.5767     465.6927   1415.63599     784.5767     465.6927
   1415.62073     784.9945     465.5972   1415.62073     784.9945     465.5972
   1415.60547     782.5471     465.3966   1415.60547     782.5471     465.3966
   1415.59021     782.0848     464.6296   1415.59021     782.0848     464.6296
   1415.57495     781.6423     463.7637   1415.57495     781.6423     463.7637
   1415.55969     780.3254     464.4937   1415.55969     780.3254     464.4937
   1415.54443     779.5182     463.1080   1415.54443     779.5182     463.1080
   1415.52917     778.0374     462.8965   1415.52917     778.0374     462.8965
   1415.51392     778.2234     462.2258   1415.51392     778.2234     462.2258
   1415.49866     777.4658     462.6395   1415.49866     777.4658     462.6395
   1415.48340     777.3837     460.6867   1415.48340     777.3837     460.6867
   1415.46814     774.8917     460.9345   1415.46814     774.8917     460.9345
   1415.45288     773.8491     460.5361   1415.45288     773.8491     460.5361
   1415.43762     773.4747     459.7591   1415.43762     773.4747     459.7591
   1415.42236     772.8334     459.1288   1415.42236     772.8334     459.1288
   1415.40710     770.4175     458.6665   1415.40710     770.4175     458.6665
   1415.39185     769.3532     457.6775   1415.39185     769.3532     457.6775
   1415.37659     768.9432     457.2761   1415.37659     768.9432     457.2761
   1415.36133     768.2753     457.4691   1415.36133     768.2753     457.4691
   1415.34607     766.8594     456.3214   1415.34607     766.8594     456.3214
   1415.33081     765.6797     455.3183   1415.33081     765.6797     455.3183
   1415.31555     765.4605     454.3958   1415.31555     765.4605     454.3958
   1415.30029     762.4731     453.8766   1415.30029     762.4731     453.8766
   1415.28503     762.0195     453.4519   1415.28503     762.0195     453.4519
   1415.26978     761.7374     452.3087   1415.26978     761.7374     452.3087
   1415.25452     761.5775     452.7568   1415.25452     761.5775     452.7568
   1415.23926     758.1508     451.7284   1415.23926     758.1508     451.7284
   1415.22400     757.0140     450.7762   1415.22400     757.0140     450.7762
   1415.20874     757.1395     449.5655   1415.20874     757.1395     449.5655
   1415.19348     755.6422     449.5035   1415.19348     755.6422     449.5035
   1415.17822     754.3683     448.7303   1415.17822     754.3683     448.7303
   1415.16296     752.3855     447.6793   1415.16296     752.3855     447.6793
   1415.14771     751.7602     447.2727   1415.14771     751.7602     447.2727
   1415.13245     749.3319     446.6028   1415.13245     749.3319     446.6028
   1415.11719     748.2086     445.3295   1415.11719     748.2086     445.3295
   1415.10193     746.8911     444.2096   1415.10193     746.8911     444.2096
   1415.08667     745.8049     444.3075   1415.08667     745.8049     444.3075
   1415.07141     744.4335     442.5627   1415.07141     744.4335     442.5627
   1415.05615     742.5830     441.9973   1415.05615     742.5830     441.9973
   1415.04089     741.9108     441.3612   1415.04089     741.9108     441.3612
   1415.02563     739.6336     440.0549   1415.02563     739.6336     440.0549
   1415.01038     738.4687     439.7777   1415.01038     738.4687     439.7777
   1414.99512     736.4412     438.3012   1414.99512     736.4412     438.3012
   1414.97986     736.4510     437.9624   1414.97986     736.4510     437.9624
   1414.96460     733.7272     436.9612   1414.96460     733.7272     436.9612
   1414.94934     732.6921     435.5490   1414.94934     732.6921     435.5490
   1414.93408     730.7313     434.9197   1414.93408     730.7313     434.9197
   1414.91882     729.5619     434.4155   1414.91882     729.5619     434.4155
   1414.90356     727.8372     432.9106   1414.90356     727.8372     432.9106
   1414.88831     725.3520     432.6749   1414.88831     725.3520     432.6749
   1414.87305     724.6089     431.3180   1414.87305     724.6089     431.3180
   1414.85779     722.6866     430.6279   1414.85779     722.6866     430.6279
   1414.84253     720.6960     429.2949   1414.84253     720.6960     429.2949
   1414.82727     718.1093     428.7282   1414.82727     718.1093     428.7282
   1414.81201     716.9952     427.3744   1414.81201     716.9952     427.3744
   1414.79675     714.6401     426.0738   1414.79675     714.6401     426.0738
   1414.78149     713.8032     425.3831   1414.78149     713.8032     425.3831
   1414.76624     712.2202     423.9146   1414.76624     712.2202     423.9146
   1414.75098     709.9315     422.7394   1414.75098     709.9315     422.7394
   1414.73572     708.3392     421.5242   1414.73572     708.3392     421.5242
   1414.72046     707.8170     420.2793   1414.72046     707.8170     420.2793
   1414.70520     704.5934     419.8264   1414.70520     704.5934     419.8264
   1414.68994     702.5092     418.9041   1414.68994     702.5092     418.9041
   1414.67468     702.1517     417.9463   1414.67468     702.1517     417.9463
   1414.65942     699.6303     416.4459   1414.65942     699.6303     416.4459
   1414.64417     698.2349     415.0908   1414.64417     698.2349     415.0908
   1414.62891     694.7031     413.5514   1414.62891     694.7031     413.5514
   1414.61365     693.3243     412.5931   1414.61365     693.3243     412.5931
   1414.59839     690.5863     410.9348   1414.59839     690.5863     410.9348
   1414.58313     689.2132     410.1724   1414.58313     689.2132     410.1724
   1414.56787     686.6478     408.7223   1414.56787     686.6478     408.7223
   1414.55261     684.4708     407.9158   1414.55261     684.4708     407.9158
   1414.53735     682.7102     406.4311   1414.53735     682.7102     406.4311
   1414.52209     679.4608     405.1419   1414.52209     679.4608     405.1419
   1414.50684     678.4107     403.8828   1414.50684     678.4107     403.8828
   1414.49158     676.6973     403.6772   1414.49158     676.6973     403.6772
   1414.47632     673.2146     400.8717   1414.47632     673.2146     400.8717
   1414.46106     671.0205     400.0743   1414.46106     671.0205     400.0743
   1414.44580     669.4407     399.1181   1414.44580     669.4407     399.1181
   1414.43054     667.4988     396.6638   1414.43054     667.4988     396.6638
   1414.41528     664.0335     395.8551   1414.41528     664.0335     395.8551
   1414.40002     662.3536     394.4366   1414.40002     662.3536     394.4366
   1414.38477     659.9868     393.0335   1414.38477     659.9868     393.0335
   1414.36951     657.4937     391.7785   1414.36951     657.4937     391.7785
   1414.35425     655.5242     390.3491   1414.35425     655.5242     390.3491
   1414.33899     652.8764     389.2673   1414.33899     652.8764     389.2673
   1414.32373     650.6808     387.5113   1414.32373     650.6808     387.5113
   1414.30847     647.4004     386.7175   1414.30847     647.4004     386.7175
   1414.29321     645.8027     384.6887   1414.29321     645.8027     384.6887
   1414.27795     643.0378     384.3252   1414.27795     643.0378     384.3252
   1414.26270     639.9091     382.4493   1414.26270     639.9091     382.4493
   1414.24744     638.3651     380.5430   1414.24744     638.3651     380.5430
   1414.23218     635.5884     379.2913   1414.23218     635.5884     379.2913
   1414.21692     632.1663     377.6232   1414.21692     632.1663     377.6232
   1414.20166     630.0458     376.9197   1414.20166     630.0458     376.9197
   1414.18640     627.4518     375.0736   1414.18640     627.4518     375.0736
   1414.17114     625.5637     373.3898   1414.17114     625.5637     373.3898
   1414.15588     623.1475     371.7060   1414.15588     623.1475     371.7060
   1414.14062     619.5419     370.3577   1414.14062     619.5419     370.3577
   1414.12537     616.9996     368.4208   1414.12537     616.9996     368.4208
   1414.11011     614.4999     366.5267   1414.11011     614.4999     366.5267
   1414.09485     611.6187     366.4399   1414.09485     611.6187     366.4399
   1414.07959     610.7894     363.9310   1414.07959     610.7894     363.9310
   1414.06433     607.1297     363.0870   1414.06433     607.1297     363.0870
   1414.04907     604.2357     361.7170   1414.04907     604.2357     361.7170
   1414.03381     600.8038     359.2856   1414.03381     600.8038     359.2856
   1414.01855     598.3256     358.4416   1414.01855     598.3256     358.4416
   1414.00330     595.3097     356.4664   1414.00330     595.3097     356.4664
   1413.98804     592.8603     355.1897   1413.98804     592.8603     355.1897
   1413.97278     590.6329     353.2597   1413.97278     590.6329     353.2597
   1413.95752     587.9532     352.0950   1413.95752     587.9532     352.0950
   1413.94226     584.8494     350.7427   1413.94226     584.8494     350.7427
   1413.92700     581.0640     348.7667   1413.92700     581.0640     348.7667
   1413.91174     578.5219     347.7324   1413.91174     578.5219     347.7324
   1413.89648     575.7083     345.7988   1413.89648     575.7083     345.7988
   1413.88123     572.9758     344.7035   1413.88123     572.9758     344.7035
   1413.86597     570.5044     342.4469   1413.86597     570.5044     342.4469
   1413.85071     567.4698     340.8951   1413.85071     567.4698     340.8951
   1413.83545     564.3296     339.7119   1413.83545     564.3296     339.7119
   1413.82019     561.3940     337.7954   1413.82019     561.3940     337.7954
   1413.80493     558.7188     336.0655   1413.80493     558.7188     336.0655
   1413.78967     555.4129     334.7462   1413.78967     555.4129     334.7462
   1413.77441     552.5044     333.7351   1413.77441     552.5044     333.7351
   1413.75916     549.3615     332.3183   1413.75916     549.3615     332.3183
   1413.74390     547.1527     330.5169   1413.74390     547.1527     330.5169
   1413.72864     544.9023     328.7008   1413.72864     544.9023     328.7008
   1413.71338     541.1548     327.3364   1413.71338     541.1548     327.3364
   1413.69812     538.0671     325.5283   1413.69812     538.0671     325.5283
   1413.68286     535.4718     323.8645   1413.68286     535.4718     323.8645
   1413.66760     532.0368     322.4068   1413.66760     532.0368     322.4068
   1413.65234     529.4548     321.5769   1413.65234     529.4548     321.5769
   1413.63708     526.7073     319.9116   1413.63708     526.7073     319.9116
   1413.62183     523.6968     318.0277   1413.62183     523.6968     318.0277
   1413.60657     521.6706     316.7986   1413.60657     521.6706     316.7986
   1413.59131     518.0921     315.3670   1413.59131     518.0921     315.3670
   1413.57605     515.6180     313.4800   1413.57605     515.6180     313.4800
   1413.56079     512.3475     311.8332   1413.56079     512.3475     311.8332
   1413.54553     509.1881     310.9750   1413.54553     509.1881     310.9750
   1413.53027     506.4982     309.0912   1413.53027     506.4982     309.0912
   1413.51501     504.2454     307.8119   1413.51501     504.2454     307.8119
   1413.49976     500.2531     306.4022   1413.49976     500.2531     306.4022
   1413.48450     497.2070     304.4975   1413.48450     497.2070     304.4975
   1413.46924     495.3251     303.1911   1413.46924     495.3251     303.1911
   1413.45398     492.1377     301.6439   1413.45398     492.1377     301.6439
   1413.43872     489.8236     300.3478   1413.43872     489.8236     300.3478
   1413.42346     486.6516     298.9688   1413.42346     486.6516     298.9688
   1413.40820     483.8857     297.4856   1413.40820     483.8857     297.4856
   1413.39294     480.7682     296.5256   1413.39294     480.7682     296.5256
   1413.37769     478.2883     295.3452   1413.37769     478.2883     295.3452
   1413.36243     475.5692     293.5764   1413.36243     475.5692     293.5764
   1413.34717     472.7830     291.8400   1413.34717     472.7830     291.8400
   1413.33191     470.2105     290.9366   1413.33191     470.2105     290.9366
   1413.31665     467.2436     289.9673   1413.31665     467.2436     289.9673
   1413.30139     464.1770     287.9365   1413.30139     464.1770     287.9365
   1413.28613     461.8593     287.1095   1413.28613     461.8593     287.1095
   1413.27087     458.7219     286.0971   1413.27087     458.7219     286.0971
   1413.25562     456.7538     284.9192   1413.25562     456.7538     284.9192
   1413.24036     453.5855     283.2907   1413.24036     453.5855     283.2907
   1413.22510     451.1078     282.5383   1413.22510     451.1078     282.5383
   1413.20984     447.9207     280.9531   1413.20984     447.9207     280.9531
   1413.19458     446.2539     279.4971   1413.19458     446.2539     279.4971
   1413.17932     443.7354     278.6201   1413.17932     443.7354     278.6201
   1413.16406     441.2296     277.6375   1413.16406     441.2296     277.6375
   1413.14880     437.5959     276.2566   1413.14880     437.5959     276.2566
   1413.13354     436.4237     275.4392   1413.13354     436.4237     275.4392
   1413.11829     433.9944     274.7015   1413.11829     433.9944     274.7015
   1413.10303     431.6375     273.2823   1413.10303     431.6375     273.2823
   1413.08777     429.1249     272.0244   1413.08777     429.1249     272.0244
   1413.07251     426.6563     271.4290   1413.07251     426.6563     271.4290
   1413.05725     424.6936     270.1929   1413.05725     424.6936     270.1929
   1413.04199     422.1324     269.0665   1413.04199     422.1324     269.0665
   1413.02673     420.1236     268.2606   1413.02673     420.1236     268.2606
   1413.01147     417.6960     267.1569   1413.01147     417.6960     267.1569
   1412.99622     415.2313     266.4558   1412.99622     415.2313     266.4558
   1412.98096     413.0298     265.3384   1412.98096     413.0298     265.3384
   1412.96570     410.7818     264.8201   1412.96570     410.7818     264.8201
   1412.95044     408.7433     264.1020   1412.95044     408.7433     264.1020
   1412.93518     406.9471     263.3923   1412.93518     406.9471     263.3923
   1412.91992     405.4494     262.7402   1412.91992     405.4494     262.7402
   1412.90466     403.9404     261.6252   1412.90466     403.9404     261.6252
   1412.88940     401.1603     261.0027   1412.88940     401.1603     261.0027
   1412.87415     399.6363     260.4610   1412.87415     399.6363     260.4610
   1412.85889     397.1895     259.7279   1412.85889     397.1895     259.7279
   1412.84363     395.5714     259.2579   1412.84363     395.5714     259.2579
   1412.82837     394.0852     258.7913   1412.82837     394.0852     258.7913
   1412.81311     392.0562     257.9841   1412.81311     392.0562     257.9841
   1412.79785     390.7234     257.6748   1412.79785     390.7234     257.6748
   1412.78259     389.3219     257.2466   1412.78259     389.3219     257.2466
   1412.76733     387.5207     256.6719   1412.76733     387.5207     256.6719
   1412.75208     386.3147     256.5262   1412.75208     386.3147     256.5262
   1412.73682     384.6927     255.7639   1412.73682     384.6927     255.7639
   1412.72156     383.8708     255.4431   1412.72156     383.8708     255.4431
   1412.70630     381.8596     255.0723   1412.70630     381.8596     255.0723
   1412.69104     380.2980     254.7951   1412.69104     380.2980     254.7951
   1412.67578     378.8606     254.4498   1412.67578     378.8606     254.4498
   1412.66052     378.0371     254.6639   1412.66052     378.0371     254.6639
   1412.64526     376.5200     254.1306   1412.64526     376.5200     254.1306
   1412.63000     376.3431     254.0016   1412.63000     376.3431     254.0016
   1412.61475     374.5904     253.9889   1412.61475     374.5904     253.9889
   1412.59949     373.5609     253.6253   1412.59949     373.5609     253.6253
   1412.58423     372.4432     253.5661   1412.58423     372.4432     253.5661
   1412.56897     372.1768     253.9729   1412.56897     372.1768     253.9729
   1412.55371     370.3163     253.4652   1412.55371     370.3163     253.4652
   1412.53845     370.2336     253.7541   1412.53845     370.2336     253.7541
   1412.52319     369.3965     253.3686   1412.52319     369.3965     253.3686
   1412.50793     368.3014     253.7377   1412.50793     368.3014     253.7377
   1412.49268     367.9638     254.5060   1412.49268     367.9638     254.5060
   1412.47742     367.6848     254.3062   1412.47742     367.6848     254.3062
   1412.46216     366.5150     254.4118   1412.46216     366.5150     254.4118
   1412.44690     365.9353     254.6525   1412.44690     365.9353     254.6525
   1412.43164     365.7863     255.0187   1412.43164     365.7863     255.0187
   1412.41638     365.1635     255.4433   1412.41638     365.1635     255.4433
   1412.40112     364.6565     256.0250   1412.40112     364.6565     256.0250
   1412.38586     364.6371     256.1853   1412.38586     364.6371     256.1853
   1412.37061     364.7933     256.2216   1412.37061     364.7933     256.2216
   1412.35535     364.4737     256.9156   1412.35535     364.4737     256.9156
   1412.34009     363.9848     257.2706   1412.34009     363.9848     257.2706
   1412.32483     364.1974     257.3977   1412.32483     364.1974     257.3977
   1412.30957     364.3752     258.9989   1412.30957     364.3752     258.9989
   1412.29431     363.9518     259.0858   1412.29431     363.9518     259.0858
   1412.27905     364.6346     260.0131   1412.27905     364.6346     260.0131
   1412.26379     364.4490     260.4305   1412.26379     364.4490     260.4305
   1412.24854     365.1548     260.9208   1412.24854     365.1548     260.9208
   1412.23328     365.1943     261.8397   1412.23328     365.1943     261.8397
   1412.21802     365.0910     262.7565   1412.21802     365.0910     262.7565
   1412.20276     365.4609     263.1476   1412.20276     365.4609     263.1476