#     FILENAME=!Skynet_57528_lach-hhg-123_20412_20947.cyb.fits
#     BASENAME=Skynet_57528_lach-hhg-123_20412_20947
#     SRC_NAME=lach-hhg-123
#     OBSERVER=hhgmadison16_9500
#     DATE_OBS=2016-05-20T16:43:37.250
#        OBSID=20412
#      SCANNUM=20947
#          MJD=57528.6980
#          UTC=60307
#     SCANTYPE=track
#     DATAMODE=HIRES
#     TUNEFREQ=1420.0000
# Actual_FREQ1=1420.0000
# Actual_FREQ2=1420.0000
#    LO1Tuning=6870.000
#     RFFILTER=1355_1435
#        OBSBW=-15.6250
#        NCHAN=1024 
#        FOCUS=37.0709
#           RA=00:52:03.38
#          DEC=62:52:19.07
#      RA(hrs)=0.867600
#     DEC(deg)=62.872000
#    AZIM(deg)=329.546
#    ELEV(deg)=56.994
#     IFattens=10.00, 9.00
#      WARNING=None
#    TCAL_XL1=7.9635
#    TCAL_YR1=9.1340
#    TCAL_XL2=7.9635
#    TCAL_YR2=9.1340
#     TRX_XL1=11.7060
#     TRX_YR1=11.7060
#     TRX_XL2=11.7060
#     TRX_YR2=11.7060
#        TAVE=1.0000
#Freq1(MHz)          XL1          YR1  Freq2(MHz)          XL2          YR2 

   1427.81250     378.6593     277.8555   1427.81250     378.6593     277.8555
   1427.79724     379.0561     278.4657   1427.79724     379.0561     278.4657
   1427.78198     379.4709     279.2492   1427.78198     379.4709     279.2492
   1427.76672     380.7290     280.2444   1427.76672     380.7290     280.2444
   1427.75146     380.9483     280.9911   1427.75146     380.9483     280.9911
   1427.73621     382.1335     281.4652   1427.73621     382.1335     281.4652
   1427.72095     382.9325     283.2194   1427.72095     382.9325     283.2194
   1427.70569     383.6718     284.5469   1427.70569     383.6718     284.5469
   1427.69043     384.5500     284.8528   1427.69043     384.5500     284.8528
   1427.67517     386.3100     286.2104   1427.67517     386.3100     286.2104
   1427.65991     387.1474     287.6191   1427.65991     387.1474     287.6191
   1427.64465     389.0391     288.5419   1427.64465     389.0391     288.5419
   1427.62939     390.3853     289.7999   1427.62939     390.3853     289.7999
   1427.61414     391.5311     291.0986   1427.61414     391.5311     291.0986
   1427.59888     392.4878     292.1263   1427.59888     392.4878     292.1263
   1427.58362     393.7359     293.8429   1427.58362     393.7359     293.8429
   1427.56836     395.1568     294.9799   1427.56836     395.1568     294.9799
   1427.55310     396.7874     296.5180   1427.55310     396.7874     296.5180
   1427.53784     398.1334     298.2895   1427.53784     398.1334     298.2895
   1427.52258     399.7873     299.2653   1427.52258     399.7873     299.2653
   1427.50732     402.5550     301.3475   1427.50732     402.5550     301.3475
   1427.49207     403.5620     303.0091   1427.49207     403.5620     303.0091
   1427.47681     405.0558     304.4949   1427.47681     405.0558     304.4949
   1427.46155     407.4384     306.1809   1427.46155     407.4384     306.1809
   1427.44629     408.6757     307.9297   1427.44629     408.6757     307.9297
   1427.43103     410.7788     308.8182   1427.43103     410.7788     308.8182
   1427.41577     413.7206     311.4541   1427.41577     413.7206     311.4541
   1427.40051     414.8175     312.8379   1427.40051     414.8175     312.8379
   1427.38525     416.9998     314.5262   1427.38525     416.9998     314.5262
   1427.37000     418.8465     316.5244   1427.37000     418.8465     316.5244
   1427.35474     421.4900     318.7839   1427.35474     421.4900     318.7839
   1427.33948     423.6102     320.4263   1427.33948     423.6102     320.4263
   1427.32422     425.9635     322.3988   1427.32422     425.9635     322.3988
   1427.30896     428.0137     323.9849   1427.30896     428.0137     323.9849
   1427.29370     430.0309     326.0329   1427.29370     430.0309     326.0329
   1427.27844     432.7558     328.4176   1427.27844     432.7558     328.4176
   1427.26318     435.0488     330.3040   1427.26318     435.0488     330.3040
   1427.24792     437.4661     332.3971   1427.24792     437.4661     332.3971
   1427.23267     439.7832     333.9928   1427.23267     439.7832     333.9928
   1427.21741     441.9948     336.4030   1427.21741     441.9948     336.4030
   1427.20215     445.0694     338.5938   1427.20215     445.0694     338.5938
   1427.18689     447.4935     340.7364   1427.18689     447.4935     340.7364
   1427.17163     450.7152     342.4359   1427.17163     450.7152     342.4359
   1427.15637     453.1104     344.9302   1427.15637     453.1104     344.9302
   1427.14111     456.1313     347.6192   1427.14111     456.1313     347.6192
   1427.12585     458.1314     349.3345   1427.12585     458.1314     349.3345
   1427.11060     460.9984     351.3157   1427.11060     460.9984     351.3157
   1427.09534     463.9321     353.9951   1427.09534     463.9321     353.9951
   1427.08008     466.1071     356.6498   1427.08008     466.1071     356.6498
   1427.06482     468.8378     358.5797   1427.06482     468.8378     358.5797
   1427.04956     472.3525     360.8075   1427.04956     472.3525     360.8075
   1427.03430     474.0354     363.5862   1427.03430     474.0354     363.5862
   1427.01904     477.7989     365.3318   1427.01904     477.7989     365.3318
   1427.00378     481.1002     368.0461   1427.00378     481.1002     368.0461
   1426.98853     483.7076     370.3295   1426.98853     483.7076     370.3295
   1426.97327     487.1006     373.0567   1426.97327     487.1006     373.0567
   1426.95801     490.0313     375.7976   1426.95801     490.0313     375.7976
   1426.94275     492.6404     377.6070   1426.94275     492.6404     377.6070
   1426.92749     494.6406     380.5810   1426.92749     494.6406     380.5810
   1426.91223     499.2719     383.3560   1426.91223     499.2719     383.3560
   1426.89697     501.7906     385.6873   1426.89697     501.7906     385.6873
   1426.88171     504.0961     387.6638   1426.88171     504.0961     387.6638
   1426.86646     507.9261     390.6517   1426.86646     507.9261     390.6517
   1426.85120     510.7544     392.4454   1426.85120     510.7544     392.4454
   1426.83594     514.6194     395.5231   1426.83594     514.6194     395.5231
   1426.82068     517.2576     398.0281   1426.82068     517.2576     398.0281
   1426.80542     519.8144     400.2398   1426.80542     519.8144     400.2398
   1426.79016     522.6254     402.2502   1426.79016     522.6254     402.2502
   1426.77490     525.8372     404.5707   1426.77490     525.8372     404.5707
   1426.75964     530.3013     408.0128   1426.75964     530.3013     408.0128
   1426.74438     533.3583     409.8240   1426.74438     533.3583     409.8240
   1426.72913     537.0032     412.4168   1426.72913     537.0032     412.4168
   1426.71387     539.0387     414.8390   1426.71387     539.0387     414.8390
   1426.69861     541.8306     418.4868   1426.69861     541.8306     418.4868
   1426.68335     545.7036     420.7224   1426.68335     545.7036     420.7224
   1426.66809     548.4164     422.6663   1426.66809     548.4164     422.6663
   1426.65283     551.2307     425.1275   1426.65283     551.2307     425.1275
   1426.63757     554.8805     428.6189   1426.63757     554.8805     428.6189
   1426.62231     560.1381     435.2792   1426.62231     560.1381     435.2792
   1426.60706     561.4684     434.4526   1426.60706     561.4684     434.4526
   1426.59180     564.4739     435.7039   1426.59180     564.4739     435.7039
   1426.57654     567.9841     438.0201   1426.57654     567.9841     438.0201
   1426.56128     570.7317     440.8056   1426.56128     570.7317     440.8056
   1426.54602     574.8143     442.8286   1426.54602     574.8143     442.8286
   1426.53076     577.6552     445.3215   1426.53076     577.6552     445.3215
   1426.51550     580.9039     447.8443   1426.51550     580.9039     447.8443
   1426.50024     583.6692     450.9543   1426.50024     583.6692     450.9543
   1426.48499     586.4264     452.4868   1426.48499     586.4264     452.4868
   1426.46973     589.1385     455.4473   1426.46973     589.1385     455.4473
   1426.45447     592.9913     457.5689   1426.45447     592.9913     457.5689
   1426.43921     596.4052     460.3951   1426.43921     596.4052     460.3951
   1426.42395     598.7020     463.0105   1426.42395     598.7020     463.0105
   1426.40869     602.4603     464.9955   1426.40869     602.4603     464.9955
   1426.39343     605.5941     467.7714   1426.39343     605.5941     467.7714
   1426.37817     608.1789     469.9210   1426.37817     608.1789     469.9210
   1426.36292     610.6599     472.7884   1426.36292     610.6599     472.7884
   1426.34766     614.4079     474.2113   1426.34766     614.4079     474.2113
   1426.33240     617.3723     475.7934   1426.33240     617.3723     475.7934
   1426.31714     620.8370     479.3778   1426.31714     620.8370     479.3778
   1426.30188     623.0853     481.9057   1426.30188     623.0853     481.9057
   1426.28662     625.1586     483.5928   1426.28662     625.1586     483.5928
   1426.27136     629.2660     485.5691   1426.27136     629.2660     485.5691
   1426.25610     632.7925     487.3246   1426.25610     632.7925     487.3246
   1426.24084     634.1625     490.5998   1426.24084     634.1625     490.5998
   1426.22559     637.7305     492.5598   1426.22559     637.7305     492.5598
   1426.21033     640.4830     495.4915   1426.21033     640.4830     495.4915
   1426.19507     642.4332     496.4074   1426.19507     642.4332     496.4074
   1426.17981     645.1509     499.7643   1426.17981     645.1509     499.7643
   1426.16455     648.4382     500.7584   1426.16455     648.4382     500.7584
   1426.14929     651.8065     503.2673   1426.14929     651.8065     503.2673
   1426.13403     654.3261     506.0544   1426.13403     654.3261     506.0544
   1426.11877     657.4527     507.7181   1426.11877     657.4527     507.7181
   1426.10352     658.6712     509.9589   1426.10352     658.6712     509.9589
   1426.08826     661.4613     512.4396   1426.08826     661.4613     512.4396
   1426.07300     664.1973     514.2201   1426.07300     664.1973     514.2201
   1426.05774     667.7729     515.7476   1426.05774     667.7729     515.7476
   1426.04248     668.7419     517.7538   1426.04248     668.7419     517.7538
   1426.02722     672.2250     520.0681   1426.02722     672.2250     520.0681
   1426.01196     674.6450     521.1064   1426.01196     674.6450     521.1064
   1425.99670     677.2438     524.7094   1425.99670     677.2438     524.7094
   1425.98145     678.8002     526.2832   1425.98145     678.8002     526.2832
   1425.96619     681.5908     529.0850   1425.96619     681.5908     529.0850
   1425.95093     684.0239     530.8262   1425.95093     684.0239     530.8262
   1425.93567     686.0005     530.7756   1425.93567     686.0005     530.7756
   1425.92041     688.4871     533.1074   1425.92041     688.4871     533.1074
   1425.90515     691.1624     534.9823   1425.90515     691.1624     534.9823
   1425.88989     693.2864     537.2259   1425.88989     693.2864     537.2259
   1425.87463     695.2672     539.1260   1425.87463     695.2672     539.1260
   1425.85938     697.4807     539.9953   1425.85938     697.4807     539.9953
   1425.84412     700.2514     543.2601   1425.84412     700.2514     543.2601
   1425.82886     702.1551     544.0248   1425.82886     702.1551     544.0248
   1425.81360     703.9440     545.5602   1425.81360     703.9440     545.5602
   1425.79834     705.7153     548.3694   1425.79834     705.7153     548.3694
   1425.78308     707.3762     549.2038   1425.78308     707.3762     549.2038
   1425.76782     710.0648     551.3610   1425.76782     710.0648     551.3610
   1425.75256     712.5398     552.2857   1425.75256     712.5398     552.2857
   1425.73730     714.8349     554.0225   1425.73730     714.8349     554.0225
   1425.72205     715.7006     556.6360   1425.72205     715.7006     556.6360
   1425.70679     717.6860     557.2353   1425.70679     717.6860     557.2353
   1425.69153     719.9680     558.3807   1425.69153     719.9680     558.3807
   1425.67627     720.5711     560.4262   1425.67627     720.5711     560.4262
   1425.66101     723.4310     562.7930   1425.66101     723.4310     562.7930
   1425.64575     724.8752     564.6325   1425.64575     724.8752     564.6325
   1425.63049     726.0107     566.0708   1425.63049     726.0107     566.0708
   1425.61523     729.0297     567.8657   1425.61523     729.0297     567.8657
   1425.59998     730.2812     569.3988   1425.59998     730.2812     569.3988
   1425.58472     731.5266     570.0591   1425.58472     731.5266     570.0591
   1425.56946     732.4648     571.7236   1425.56946     732.4648     571.7236
   1425.55420     732.9070     573.1492   1425.55420     732.9070     573.1492
   1425.53894     736.6964     574.1665   1425.53894     736.6964     574.1665
   1425.52368     737.2471     575.7839   1425.52368     737.2471     575.7839
   1425.50842     739.2062     576.8635   1425.50842     739.2062     576.8635
   1425.49316     739.4799     578.6848   1425.49316     739.4799     578.6848
   1425.47791     740.9106     579.5478   1425.47791     740.9106     579.5478
   1425.46265     741.7599     580.6885   1425.46265     741.7599     580.6885
   1425.44739     744.8879     583.4161   1425.44739     744.8879     583.4161
   1425.43213     745.4890     583.2615   1425.43213     745.4890     583.2615
   1425.41687     746.9496     585.6296   1425.41687     746.9496     585.6296
   1425.40161     747.6638     587.1656   1425.40161     747.6638     587.1656
   1425.38635     748.0251     587.7060   1425.38635     748.0251     587.7060
   1425.37109     750.6843     588.9702   1425.37109     750.6843     588.9702
   1425.35583     751.5040     589.7161   1425.35583     751.5040     589.7161
   1425.34058     752.4968     591.1218   1425.34058     752.4968     591.1218
   1425.32532     752.7928     592.1883   1425.32532     752.7928     592.1883
   1425.31006     754.0671     593.3527   1425.31006     754.0671     593.3527
   1425.29480     754.3161     594.9297   1425.29480     754.3161     594.9297
   1425.27954     756.5845     596.1262   1425.27954     756.5845     596.1262
   1425.26428     756.2867     596.0991   1425.26428     756.2867     596.0991
   1425.24902     757.3653     597.5273   1425.24902     757.3653     597.5273
   1425.23376     758.9090     599.2382   1425.23376     758.9090     599.2382
   1425.21851     759.6966     601.0833   1425.21851     759.6966     601.0833
   1425.20325     760.7282     600.8618   1425.20325     760.7282     600.8618
   1425.18799     761.8154     602.4306   1425.18799     761.8154     602.4306
   1425.17273     762.2026     602.9089   1425.17273     762.2026     602.9089
   1425.15747     763.3109     604.2534   1425.15747     763.3109     604.2534
   1425.14221     764.6271     605.5411   1425.14221     764.6271     605.5411
   1425.12695     764.8736     606.1184   1425.12695     764.8736     606.1184
   1425.11169     765.7877     606.9109   1425.11169     765.7877     606.9109
   1425.09644     764.7789     608.2538   1425.09644     764.7789     608.2538
   1425.08118     765.9891     608.6202   1425.08118     765.9891     608.6202
   1425.06592     767.2684     610.4720   1425.06592     767.2684     610.4720
   1425.05066     767.2054     610.6644   1425.05066     767.2054     610.6644
   1425.03540     767.8351     611.5297   1425.03540     767.8351     611.5297
   1425.02014     766.7316     612.2920   1425.02014     766.7316     612.2920
   1425.00488     767.9242     613.4426   1425.00488     767.9242     613.4426
   1424.98962     769.0775     613.9366   1424.98962     769.0775     613.9366
   1424.97437     768.9633     614.2979   1424.97437     768.9633     614.2979
   1424.95911     770.7280     614.9370   1424.95911     770.7280     614.9370
   1424.94385     770.2867     616.0224   1424.94385     770.2867     616.0224
   1424.92859     769.0779     617.1237   1424.92859     769.0779     617.1237
   1424.91333     770.4654     617.4445   1424.91333     770.4654     617.4445
   1424.89807     770.0898     618.5850   1424.89807     770.0898     618.5850
   1424.88281     770.2568     619.3353   1424.88281     770.2568     619.3353
   1424.86755     771.7811     618.7518   1424.86755     771.7811     618.7518
   1424.85229     771.4075     620.0281   1424.85229     771.4075     620.0281
   1424.83704     770.4094     621.3764   1424.83704     770.4094     621.3764
   1424.82178     771.7798     621.6462   1424.82178     771.7798     621.6462
   1424.80652     771.6569     621.9158   1424.80652     771.6569     621.9158
   1424.79126     772.1458     621.4316   1424.79126     772.1458     621.4316
   1424.77600     770.9035     622.8848   1424.77600     770.9035     622.8848
   1424.76074     772.4240     623.5641   1424.76074     772.4240     623.5641
   1424.74548     771.3767     624.4919   1424.74548     771.3767     624.4919
   1424.73022     773.1348     625.6845   1424.73022     773.1348     625.6845
   1424.71497     772.4274     625.2626   1424.71497     772.4274     625.2626
   1424.69971     772.9911     626.8270   1424.69971     772.9911     626.8270
   1424.68445     773.0997     626.2421   1424.68445     773.0997     626.2421
   1424.66919     772.5107     626.7989   1424.66919     772.5107     626.7989
   1424.65393     773.6653     626.4231   1424.65393     773.6653     626.4231
   1424.63867     771.8220     627.6887   1424.63867     771.8220     627.6887
   1424.62341     772.9804     628.4239   1424.62341     772.9804     628.4239
   1424.60815     771.8615     629.0066   1424.60815     771.8615     629.0066
   1424.59290     773.2032     629.7015   1424.59290     773.2032     629.7015
   1424.57764     772.7405     630.5972   1424.57764     772.7405     630.5972
   1424.56238     772.3826     629.4120   1424.56238     772.3826     629.4120
   1424.54712     772.2602     630.4457   1424.54712     772.2602     630.4457
   1424.53186     772.7003     630.5692   1424.53186     772.7003     630.5692
   1424.51660     773.0872     631.1034   1424.51660     773.0872     631.1034
   1424.50134     772.0106     632.0685   1424.50134     772.0106     632.0685
   1424.48608     770.1879     630.8495   1424.48608     770.1879     630.8495
   1424.47083     771.0941     631.7164   1424.47083     771.0941     631.7164
   1424.45557     771.4417     631.7642   1424.45557     771.4417     631.7642
   1424.44031     770.5726     631.8132   1424.44031     770.5726     631.8132
   1424.42505     771.3953     632.4468   1424.42505     771.3953     632.4468
   1424.40979     770.3991     633.2620   1424.40979     770.3991     633.2620
   1424.39453     769.6904     633.5740   1424.39453     769.6904     633.5740
   1424.37927     770.1197     634.0358   1424.37927     770.1197     634.0358
   1424.36401     770.1434     634.3571   1424.36401     770.1434     634.3571
   1424.34875     769.6497     634.0833   1424.34875     769.6497     634.0833
   1424.33350     768.5604     634.1144   1424.33350     768.5604     634.1144
   1424.31824     768.4054     633.9833   1424.31824     768.4054     633.9833
   1424.30298     768.5021     634.0831   1424.30298     768.5021     634.0831
   1424.28772     768.5535     635.2100   1424.28772     768.5535     635.2100
   1424.27246     768.5712     634.2088   1424.27246     768.5712     634.2088
   1424.25720     768.2709     634.2322   1424.25720     768.2709     634.2322
   1424.24194     767.5554     635.2454   1424.24194     767.5554     635.2454
   1424.22668     768.2703     635.5692   1424.22668     768.2703     635.5692
   1424.21143     766.4730     636.1891   1424.21143     766.4730     636.1891
   1424.19617     766.8619     635.7640   1424.19617     766.8619     635.7640
   1424.18091     767.4145     636.6714   1424.18091     767.4145     636.6714
   1424.16565     766.3645     635.9731   1424.16565     766.3645     635.9731
   1424.15039     765.4510     636.4835   1424.15039     765.4510     636.4835
   1424.13513     764.4205     636.1354   1424.13513     764.4205     636.1354
   1424.11987     763.9489     635.9080   1424.11987     763.9489     635.9080
   1424.10461     763.5881     636.9007   1424.10461     763.5881     636.9007
   1424.08936     763.8976     636.2870   1424.08936     763.8976     636.2870
   1424.07410     764.8476     635.6176   1424.07410     764.8476     635.6176
   1424.05884     762.6588     636.2096   1424.05884     762.6588     636.2096
   1424.04358     762.7566     636.9617   1424.04358     762.7566     636.9617
   1424.02832     762.9882     636.2125   1424.02832     762.9882     636.2125
   1424.01306     761.0504     636.2880   1424.01306     761.0504     636.2880
   1423.99780     762.3421     636.4644   1423.99780     762.3421     636.4644
   1423.98254     760.9090     636.3134   1423.98254     760.9090     636.3134
   1423.96729     760.8254     636.1385   1423.96729     760.8254     636.1385
   1423.95203     760.6757     635.5028   1423.95203     760.6757     635.5028
   1423.93677     759.8325     636.3492   1423.93677     759.8325     636.3492
   1423.92151     760.0912     636.3962   1423.92151     760.0912     636.3962
   1423.90625     759.9077     636.0905   1423.90625     759.9077     636.0905
   1423.89099     759.1949     636.5818   1423.89099     759.1949     636.5818
   1423.87573     757.8395     636.3088   1423.87573     757.8395     636.3088
   1423.86047     758.1662     636.5646   1423.86047     758.1662     636.5646
   1423.84521     758.4611     635.6887   1423.84521     758.4611     635.6887
   1423.82996     756.9924     635.9182   1423.82996     756.9924     635.9182
   1423.81470     756.4954     635.7106   1423.81470     756.4954     635.7106
   1423.79944     756.3651     635.6604   1423.79944     756.3651     635.6604
   1423.78418     756.1696     635.8748   1423.78418     756.1696     635.8748
   1423.76892     754.1091     634.8455   1423.76892     754.1091     634.8455
   1423.75366     755.8061     635.7023   1423.75366     755.8061     635.7023
   1423.73840     754.1740     634.8668   1423.73840     754.1740     634.8668
   1423.72314     753.9249     635.9222   1423.72314     753.9249     635.9222
   1423.70789     753.3360     634.9484   1423.70789     753.3360     634.9484
   1423.69263     753.4544     634.7216   1423.69263     753.4544     634.7216
   1423.67737     752.3076     633.8467   1423.67737     752.3076     633.8467
   1423.66211     752.2590     633.0585   1423.66211     752.2590     633.0585
   1423.64685     752.3233     633.6932   1423.64685     752.3233     633.6932
   1423.63159     750.5902     633.9199   1423.63159     750.5902     633.9199
   1423.61633     750.8049     633.2844   1423.61633     750.8049     633.2844
   1423.60107     750.5753     633.6027   1423.60107     750.5753     633.6027
   1423.58582     750.9356     634.0273   1423.58582     750.9356     634.0273
   1423.57056     749.2346     634.2953   1423.57056     749.2346     634.2953
   1423.55530     749.7779     632.6934   1423.55530     749.7779     632.6934
   1423.54004     748.0794     632.7313   1423.54004     748.0794     632.7313
   1423.52478     748.2036     632.5024   1423.52478     748.2036     632.5024
   1423.50952     748.3572     631.9723   1423.50952     748.3572     631.9723
   1423.49426     748.3619     631.8665   1423.49426     748.3619     631.8665
   1423.47900     747.2805     631.6401   1423.47900     747.2805     631.6401
   1423.46375     745.7913     630.4991   1423.46375     745.7913     630.4991
   1423.44849     746.8986     630.4274   1423.44849     746.8986     630.4274
   1423.43323     746.7225     630.4521   1423.43323     746.7225     630.4521
   1423.41797     744.9198     630.4437   1423.41797     744.9198     630.4437
   1423.40271     745.4917     629.2188   1423.40271     745.4917     629.2188
   1423.38745     745.8416     629.8353   1423.38745     745.8416     629.8353
   1423.37219     745.5684     628.8075   1423.37219     745.5684     628.8075
   1423.35693     745.4261     629.3572   1423.35693     745.4261     629.3572
   1423.34167     744.2589     627.5881   1423.34167     744.2589     627.5881
   1423.32642     743.1828     629.1033   1423.32642     743.1828     629.1033
   1423.31116     744.3972     628.0437   1423.31116     744.3972     628.0437
   1423.29590     742.9540     627.0640   1423.29590     742.9540     627.0640
   1423.28064     743.6683     626.6809   1423.28064     743.6683     626.6809
   1423.26538     742.1108     626.5186   1423.26538     742.1108     626.5186
   1423.25012     741.3406     625.8937   1423.25012     741.3406     625.8937
   1423.23486     740.4100     625.4196   1423.23486     740.4100     625.4196
   1423.21960     740.6391     625.1905   1423.21960     740.6391     625.1905
   1423.20435     739.7828     624.1711   1423.20435     739.7828     624.1711
   1423.18909     739.9014     623.8516   1423.18909     739.9014     623.8516
   1423.17383     739.9436     623.5740   1423.17383     739.9436     623.5740
   1423.15857     739.2366     623.1595   1423.15857     739.2366     623.1595
   1423.14331     738.7975     621.1199   1423.14331     738.7975     621.1199
   1423.12805     738.9913     622.7823   1423.12805     738.9913     622.7823
   1423.11279     738.9122     622.7054   1423.11279     738.9122     622.7054
   1423.09753     738.2967     620.5971   1423.09753     738.2967     620.5971
   1423.08228     737.1856     620.7592   1423.08228     737.1856     620.7592
   1423.06702     737.4273     621.2310   1423.06702     737.4273     621.2310
   1423.05176     736.4943     619.3367   1423.05176     736.4943     619.3367
   1423.03650     735.8070     619.6427   1423.03650     735.8070     619.6427
   1423.02124     735.9194     617.8173   1423.02124     735.9194     617.8173
   1423.00598     734.6019     618.6293   1423.00598     734.6019     618.6293
   1422.99072     736.4686     617.6516   1422.99072     736.4686     617.6516
   1422.97546     735.6259     616.5501   1422.97546     735.6259     616.5501
   1422.96021     736.1071     616.1074   1422.96021     736.1071     616.1074
   1422.94495     734.3231     615.6714   1422.94495     734.3231     615.6714
   1422.92969     734.2654     615.0707   1422.92969     734.2654     615.0707
   1422.91443     733.7310     615.0005   1422.91443     733.7310     615.0005
   1422.89917     734.2552     613.9820   1422.89917     734.2552     613.9820
   1422.88391     734.2413     612.9280   1422.88391     734.2413     612.9280
   1422.86865     733.2472     613.0688   1422.86865     733.2472     613.0688
   1422.85339     732.6801     611.5737   1422.85339     732.6801     611.5737
   1422.83813     732.8240     611.9698   1422.83813     732.8240     611.9698
   1422.82288     732.1505     609.3422   1422.82288     732.1505     609.3422
   1422.80762     731.7221     610.4258   1422.80762     731.7221     610.4258
   1422.79236     732.0226     609.1161   1422.79236     732.0226     609.1161
   1422.77710     731.9417     608.2571   1422.77710     731.9417     608.2571
   1422.76184     731.4042     608.6597   1422.76184     731.4042     608.6597
   1422.74658     730.9724     606.6970   1422.74658     730.9724     606.6970
   1422.73132     730.6201     606.4277   1422.73132     730.6201     606.4277
   1422.71606     731.1201     605.5239   1422.71606     731.1201     605.5239
   1422.70081     729.8840     605.2558   1422.70081     729.8840     605.2558
   1422.68555     729.7156     605.1236   1422.68555     729.7156     605.1236
   1422.67029     731.4174     603.8420   1422.67029     731.4174     603.8420
   1422.65503     730.7707     603.7008   1422.65503     730.7707     603.7008
   1422.63977     728.3570     602.1460   1422.63977     728.3570     602.1460
   1422.62451     727.5167     601.0881   1422.62451     727.5167     601.0881
   1422.60925     728.3903     600.8690   1422.60925     728.3903     600.8690
   1422.59399     728.2938     600.1241   1422.59399     728.2938     600.1241
   1422.57874     728.3330     599.6250   1422.57874     728.3330     599.6250
   1422.56348     727.9329     597.2228   1422.56348     727.9329     597.2228
   1422.54822     726.9872     597.0766   1422.54822     726.9872     597.0766
   1422.53296     728.0251     596.9877   1422.53296     728.0251     596.9877
   1422.51770     726.8612     595.4612   1422.51770     726.8612     595.4612
   1422.50244     726.4625     594.8454   1422.50244     726.4625     594.8454
   1422.48718     726.8524     594.2593   1422.48718     726.8524     594.2593
   1422.47192     726.7627     593.7468   1422.47192     726.7627     593.7468
   1422.45667     726.8552     592.7385   1422.45667     726.8552     592.7385
   1422.44141     726.8345     591.4380   1422.44141     726.8345     591.4380
   1422.42615     725.6020     590.5588   1422.42615     725.6020     590.5588
   1422.41089     725.9324     588.9287   1422.41089     725.9324     588.9287
   1422.39563     725.6241     589.1369   1422.39563     725.6241     589.1369
   1422.38037     724.4083     588.0066   1422.38037     724.4083     588.0066
   1422.36511     724.3466     585.6420   1422.36511     724.3466     585.6420
   1422.34985     724.0936     586.8663   1422.34985     724.0936     586.8663
   1422.33459     724.3258     585.7019   1422.33459     724.3258     585.7019
   1422.31934     724.2379     584.6517   1422.31934     724.2379     584.6517
   1422.30408     724.0407     583.7538   1422.30408     724.0407     583.7538
   1422.28882     724.0384     583.3824   1422.28882     724.0384     583.3824
   1422.27356     722.6983     581.9655   1422.27356     722.6983     581.9655
   1422.25830     722.7120     581.2320   1422.25830     722.7120     581.2320
   1422.24304     723.0763     580.8870   1422.24304     723.0763     580.8870
   1422.22778     722.6271     579.2249   1422.22778     722.6271     579.2249
   1422.21252     723.2958     577.7813   1422.21252     723.2958     577.7813
   1422.19727     722.5464     576.7023   1422.19727     722.5464     576.7023
   1422.18201     722.3046     575.6754   1422.18201     722.3046     575.6754
   1422.16675     723.0312     575.5234   1422.16675     723.0312     575.5234
   1422.15149     722.4056     574.2383   1422.15149     722.4056     574.2383
   1422.13623     721.7246     573.5103   1422.13623     721.7246     573.5103
   1422.12097     720.5853     573.2706   1422.12097     720.5853     573.2706
   1422.10571     721.6375     571.0457   1422.10571     721.6375     571.0457
   1422.09045     719.9044     569.9871   1422.09045     719.9044     569.9871
   1422.07520     720.9122     569.2579   1422.07520     720.9122     569.2579
   1422.05994     720.4938     567.6810   1422.05994     720.4938     567.6810
   1422.04468     720.7407     566.6360   1422.04468     720.7407     566.6360
   1422.02942     719.9861     565.8984   1422.02942     719.9861     565.8984
   1422.01416     719.8195     564.7728   1422.01416     719.8195     564.7728
   1421.99890     720.0334     564.7144   1421.99890     720.0334     564.7144
   1421.98364     720.1722     563.4733   1421.98364     720.1722     563.4733
   1421.96838     719.9833     561.9061   1421.96838     719.9833     561.9061
   1421.95312     718.7242     560.9348   1421.95312     718.7242     560.9348
   1421.93787     718.2974     559.5165   1421.93787     718.2974     559.5165
   1421.92261     719.4800     558.9091   1421.92261     719.4800     558.9091
   1421.90735     719.1285     558.0456   1421.90735     719.1285     558.0456
   1421.89209     718.8848     557.1108   1421.89209     718.8848     557.1108
   1421.87683     718.8876     555.9545   1421.87683     718.8876     555.9545
   1421.86157     718.6710     555.0914   1421.86157     718.6710     555.0914
   1421.84631     718.1714     554.3081   1421.84631     718.1714     554.3081
   1421.83105     717.7022     551.8836   1421.83105     717.7022     551.8836
   1421.81580     718.8778     552.1829   1421.81580     718.8778     552.1829
   1421.80054     718.7281     550.0527   1421.80054     718.7281     550.0527
   1421.78528     718.2227     548.8190   1421.78528     718.2227     548.8190
   1421.77002     718.2379     548.2224   1421.77002     718.2379     548.2224
   1421.75476     716.0203     547.3311   1421.75476     716.0203     547.3311
   1421.73950     716.7090     545.3373   1421.73950     716.7090     545.3373
   1421.72424     716.0236     545.3220   1421.72424     716.0236     545.3220
   1421.70898     716.0862     543.3213   1421.70898     716.0862     543.3213
   1421.69373     715.7319     544.5479   1421.69373     715.7319     544.5479
   1421.67847     715.8478     541.5786   1421.67847     715.8478     541.5786
   1421.66321     716.2570     539.6806   1421.66321     716.2570     539.6806
   1421.64795     716.0082     539.4328   1421.64795     716.0082     539.4328
   1421.63269     715.7383     538.1306   1421.63269     715.7383     538.1306
   1421.61743     715.5709     537.1085   1421.61743     715.5709     537.1085
   1421.60217     715.8705     536.2392   1421.60217     715.8705     536.2392
   1421.58691     715.5501     535.3386   1421.58691     715.5501     535.3386
   1421.57166     714.2131     534.0671   1421.57166     714.2131     534.0671
   1421.55640     715.0700     533.0023   1421.55640     715.0700     533.0023
   1421.54114     714.8751     531.7665   1421.54114     714.8751     531.7665
   1421.52588     714.7064     530.5623   1421.52588     714.7064     530.5623
   1421.51062     715.3464     529.6848   1421.51062     715.3464     529.6848
   1421.49536     714.3432     528.5464   1421.49536     714.3432     528.5464
   1421.48010     714.0475     527.4843   1421.48010     714.0475     527.4843
   1421.46484     714.3173     526.9000   1421.46484     714.3173     526.9000
   1421.44958     714.1471     525.9985   1421.44958     714.1471     525.9985
   1421.43433     715.1364     524.6584   1421.43433     715.1364     524.6584
   1421.41907     714.9893     524.4730   1421.41907     714.9893     524.4730
   1421.40381     715.8417     523.6090   1421.40381     715.8417     523.6090
   1421.38855     713.5229     522.6410   1421.38855     713.5229     522.6410
   1421.37329     715.1366     521.6324   1421.37329     715.1366     521.6324
   1421.35803     714.7548     519.7759   1421.35803     714.7548     519.7759
   1421.34277     713.8017     519.1147   1421.34277     713.8017     519.1147
   1421.32751     713.8915     517.7162   1421.32751     713.8915     517.7162
   1421.31226     713.2589     517.3550   1421.31226     713.2589     517.3550
   1421.29700     714.5103     515.5115   1421.29700     714.5103     515.5115
   1421.28174     714.8715     514.0931   1421.28174     714.8715     514.0931
   1421.26648     714.2628     513.8023   1421.26648     714.2628     513.8023
   1421.25122     714.7292     512.5921   1421.25122     714.7292     512.5921
   1421.23596     713.0522     511.1602   1421.23596     713.0522     511.1602
   1421.22070     713.5215     509.5970   1421.22070     713.5215     509.5970
   1421.20544     713.0396     509.0329   1421.20544     713.0396     509.0329
   1421.19019     713.1631     507.6995   1421.19019     713.1631     507.6995
   1421.17493     712.5650     506.9024   1421.17493     712.5650     506.9024
   1421.15967     711.4419     506.0995   1421.15967     711.4419     506.0995
   1421.14441     713.0209     505.0500   1421.14441     713.0209     505.0500
   1421.12915     712.1451     504.5685   1421.12915     712.1451     504.5685
   1421.11389     713.3044     504.3141   1421.11389     713.3044     504.3141
   1421.09863     716.2961     504.1380   1421.09863     716.2961     504.1380
   1421.08337     717.2719     504.7932   1421.08337     717.2719     504.7932
   1421.06812     722.1345     507.1805   1421.06812     722.1345     507.1805
   1421.05286     736.7941     516.3529   1421.05286     736.7941     516.3529
   1421.03760     778.8083     544.1239   1421.03760     778.8083     544.1239
   1421.02234     789.7564     550.3389   1421.02234     789.7564     550.3389
   1421.00708     792.3778     552.3466   1421.00708     792.3778     552.3466
   1420.99182     814.5693     566.3894   1420.99182     814.5693     566.3894
   1420.97656     846.9824     586.1686   1420.97656     846.9824     586.1686
   1420.96130     924.7996     638.6712   1420.96130     924.7996     638.6712
   1420.94604    1051.1362     720.9772   1420.94604    1051.1362     720.9772
   1420.93079    1067.8362     730.1172   1420.93079    1067.8362     730.1172
   1420.91553    1012.2046     693.6536   1420.91553    1012.2046     693.6536
   1420.90027     955.8004     653.9263   1420.90027     955.8004     653.9263
   1420.88501     935.9569     639.7868   1420.88501     935.9569     639.7868
   1420.86975     943.8232     644.2011   1420.86975     943.8232     644.2011
   1420.85449     947.0152     643.8398   1420.85449     947.0152     643.8398
   1420.83923     966.1815     656.4064   1420.83923     966.1815     656.4064
   1420.82397    1032.5842     698.8465   1420.82397    1032.5842     698.8465
   1420.80872    1123.0048     759.1018   1420.80872    1123.0048     759.1018
   1420.79346    1255.0510     844.3537   1420.79346    1255.0510     844.3537
   1420.77820    1366.3853     918.3751   1420.77820    1366.3853     918.3751
   1420.76294    1412.7651     945.3679   1420.76294    1412.7651     945.3679
   1420.74768    1445.1216     966.0497   1420.74768    1445.1216     966.0497
   1420.73242    1477.6874     985.0050   1420.73242    1477.6874     985.0050
   1420.71716    1576.7419    1049.0143   1420.71716    1576.7419    1049.0143
   1420.70190    1687.9924    1117.9301   1420.70190    1687.9924    1117.9301
   1420.68665    1767.3884    1165.3101   1420.68665    1767.3884    1165.3101
   1420.67139    1815.7897    1194.7988   1420.67139    1815.7897    1194.7988
   1420.65613    1821.0742    1194.7632   1420.65613    1821.0742    1194.7632
   1420.64087    1514.9244     995.1014   1420.64087    1514.9244     995.1014
   1420.62561    1130.8550     745.1090   1420.62561    1130.8550     745.1090
   1420.61035     998.0540     658.1243   1420.61035     998.0540     658.1243
   1420.59509     962.0867     634.1656   1420.59509     962.0867     634.1656
   1420.57983     978.1611     643.7994   1420.57983     978.1611     643.7994
   1420.56458    1137.9180     746.6343   1420.56458    1137.9180     746.6343
   1420.54932    1484.4662     967.7663   1420.54932    1484.4662     967.7663
   1420.53406    1693.6764    1101.1405   1420.53406    1693.6764    1101.1405
   1420.51880    1819.2814    1184.4866   1420.51880    1819.2814    1184.4866
   1420.50354    1746.5000    1132.7218   1420.50354    1746.5000    1132.7218
   1420.48828    1635.2799    1061.4108   1420.48828    1635.2799    1061.4108
   1420.47302    1605.3889    1039.8796   1420.47302    1605.3889    1039.8796
   1420.45776    1675.3115    1081.6379   1420.45776    1675.3115    1081.6379
   1420.44250    1349.2468     869.8575   1420.44250    1349.2468     869.8575
   1420.42725     978.4449     633.0721   1420.42725     978.4449     633.0721
   1420.41199     818.0508     530.7336   1420.41199     818.0508     530.7336
   1420.39673     762.8528     494.5817   1420.39673     762.8528     494.5817
   1420.38147     738.1135     477.9573   1420.38147     738.1135     477.9573
   1420.36621     723.5285     469.7026   1420.36621     723.5285     469.7026
   1420.35095     714.6110     464.4466   1420.35095     714.6110     464.4466
   1420.33569     710.9814     461.5574   1420.33569     710.9814     461.5574
   1420.32043     709.6874     459.1945   1420.32043     709.6874     459.1945
   1420.30518     706.4051     457.5455   1420.30518     706.4051     457.5455
   1420.28992     706.1756     455.8801   1420.28992     706.1756     455.8801
   1420.27466     706.1373     455.0191   1420.27466     706.1373     455.0191
   1420.25940     704.3209     454.8729   1420.25940     704.3209     454.8729
   1420.24414     706.0392     452.6801   1420.24414     706.0392     452.6801
   1420.22888     704.1237     451.8505   1420.22888     704.1237     451.8505
   1420.21362     704.5636     451.0378   1420.21362     704.5636     451.0378
   1420.19836     703.4816     449.1432   1420.19836     703.4816     449.1432
   1420.18311     702.0450     448.2302   1420.18311     702.0450     448.2302
   1420.16785     701.0493     446.9952   1420.16785     701.0493     446.9952
   1420.15259     700.9523     446.3256   1420.15259     700.9523     446.3256
   1420.13733     699.3347     446.6817   1420.13733     699.3347     446.6817
   1420.12207     700.3684     444.5530   1420.12207     700.3684     444.5530
   1420.10681     699.4047     443.8658   1420.10681     699.4047     443.8658
   1420.09155     697.6685     442.9556   1420.09155     697.6685     442.9556
   1420.07629     696.8268     441.5199   1420.07629     696.8268     441.5199
   1420.06104     696.1063     440.8510   1420.06104     696.1063     440.8510
   1420.04578     697.1183     440.5405   1420.04578     697.1183     440.5405
   1420.03052     696.4078     439.9601   1420.03052     696.4078     439.9601
   1420.01526     697.7103     439.9070   1420.01526     697.7103     439.9070
   1420.00000     698.1589     440.7564   1420.00000     698.1589     440.7564
   1419.98474     698.6077     441.6059   1419.98474     698.6077     441.6059
   1419.96948     699.0840     438.6222   1419.96948     699.0840     438.6222
   1419.95422     696.5442     437.8826   1419.95422     696.5442     437.8826
   1419.93896     697.0287     436.4274   1419.93896     697.0287     436.4274
   1419.92371     697.2147     437.0876   1419.92371     697.2147     437.0876
   1419.90845     696.5269     435.4701   1419.90845     696.5269     435.4701
   1419.89319     697.1309     435.3343   1419.89319     697.1309     435.3343
   1419.87793     696.8947     435.0125   1419.87793     696.8947     435.0125
   1419.86267     697.4327     434.4492   1419.86267     697.4327     434.4492
   1419.84741     696.6474     434.0170   1419.84741     696.6474     434.0170
   1419.83215     697.0448     433.6967   1419.83215     697.0448     433.6967
   1419.81689     696.9977     433.1264   1419.81689     696.9977     433.1264
   1419.80164     697.7377     432.9507   1419.80164     697.7377     432.9507
   1419.78638     696.3760     431.8301   1419.78638     696.3760     431.8301
   1419.77112     697.4915     432.6397   1419.77112     697.4915     432.6397
   1419.75586     696.7877     431.1463   1419.75586     696.7877     431.1463
   1419.74060     697.8978     432.0588   1419.74060     697.8978     432.0588
   1419.72534     697.0796     431.7384   1419.72534     697.0796     431.7384
   1419.71008     698.8136     430.9221   1419.71008     698.8136     430.9221
   1419.69482     697.9317     429.9518   1419.69482     697.9317     429.9518
   1419.67957     698.3195     430.1438   1419.67957     698.3195     430.1438
   1419.66431     698.8796     430.2919   1419.66431     698.8796     430.2919
   1419.64905     698.1933     429.6684   1419.64905     698.1933     429.6684
   1419.63379     698.4673     430.0487   1419.63379     698.4673     430.0487
   1419.61853     698.5827     429.6233   1419.61853     698.5827     429.6233
   1419.60327     698.6351     429.7705   1419.60327     698.6351     429.7705
   1419.58801     699.1199     429.6729   1419.58801     699.1199     429.6729
   1419.57275     699.7392     429.1373   1419.57275     699.7392     429.1373
   1419.55750     699.2018     429.2891   1419.55750     699.2018     429.2891
   1419.54224     699.1151     428.5385   1419.54224     699.1151     428.5385
   1419.52698     700.6089     429.0836   1419.52698     700.6089     429.0836
   1419.51172     699.4266     428.8408   1419.51172     699.4266     428.8408
   1419.49646     700.9411     428.8579   1419.49646     700.9411     428.8579
   1419.48120     699.8471     428.6018   1419.48120     699.8471     428.6018
   1419.46594     701.7795     428.4384   1419.46594     701.7795     428.4384
   1419.45068     701.2845     428.9921   1419.45068     701.2845     428.9921
   1419.43542     702.9644     428.4943   1419.43542     702.9644     428.4943
   1419.42017     702.1336     428.3241   1419.42017     702.1336     428.3241
   1419.40491     703.0004     429.0683   1419.40491     703.0004     429.0683
   1419.38965     702.6240     428.4013   1419.38965     702.6240     428.4013
   1419.37439     703.7480     428.2024   1419.37439     703.7480     428.2024
   1419.35913     703.2313     428.3330   1419.35913     703.2313     428.3330
   1419.34387     703.5605     428.6334   1419.34387     703.5605     428.6334
   1419.32861     705.0312     428.1361   1419.32861     705.0312     428.1361
   1419.31335     704.8386     429.1594   1419.31335     704.8386     429.1594
   1419.29810     704.4518     428.3263   1419.29810     704.4518     428.3263
   1419.28284     704.2418     429.3671   1419.28284     704.2418     429.3671
   1419.26758     705.7762     427.9805   1419.26758     705.7762     427.9805
   1419.25232     705.5501     429.1291   1419.25232     705.5501     429.1291
   1419.23706     706.3665     428.8636   1419.23706     706.3665     428.8636
   1419.22180     705.9814     428.6671   1419.22180     705.9814     428.6671
   1419.20654     708.4196     429.4907   1419.20654     708.4196     429.4907
   1419.19128     706.5551     429.1288   1419.19128     706.5551     429.1288
   1419.17603     707.7690     430.2822   1419.17603     707.7690     430.2822
   1419.16077     707.8918     430.0009   1419.16077     707.8918     430.0009
   1419.14551     708.5060     429.6168   1419.14551     708.5060     429.6168
   1419.13025     708.5411     430.0116   1419.13025     708.5411     430.0116
   1419.11499     708.7975     430.4349   1419.11499     708.7975     430.4349
   1419.09973     709.6912     430.5257   1419.09973     709.6912     430.5257
   1419.08447     710.4781     430.8210   1419.08447     710.4781     430.8210
   1419.06921     709.9039     430.8497   1419.06921     709.9039     430.8497
   1419.05396     710.9752     431.6408   1419.05396     710.9752     431.6408
   1419.03870     711.8557     431.6189   1419.03870     711.8557     431.6189
   1419.02344     713.2535     432.6208   1419.02344     713.2535     432.6208
   1419.00818     712.6220     432.7708   1419.00818     712.6220     432.7708
   1418.99292     713.1062     433.0303   1418.99292     713.1062     433.0303
   1418.97766     713.4224     433.2689   1418.97766     713.4224     433.2689
   1418.96240     714.3803     434.0301   1418.96240     714.3803     434.0301
   1418.94714     714.6476     434.0332   1418.94714     714.6476     434.0332
   1418.93188     714.9053     433.6789   1418.93188     714.9053     433.6789
   1418.91663     716.0087     434.5471   1418.91663     716.0087     434.5471
   1418.90137     715.5018     435.0259   1418.90137     715.5018     435.0259
   1418.88611     716.4287     435.6057   1418.88611     716.4287     435.6057
   1418.87085     718.1647     435.9019   1418.87085     718.1647     435.9019
   1418.85559     716.9419     436.2401   1418.85559     716.9419     436.2401
   1418.84033     718.5664     437.0811   1418.84033     718.5664     437.0811
   1418.82507     718.0859     436.8592   1418.82507     718.0859     436.8592
   1418.80981     718.5516     438.0394   1418.80981     718.5516     438.0394
   1418.79456     718.8445     438.2444   1418.79456     718.8445     438.2444
   1418.77930     720.9454     439.5213   1418.77930     720.9454     439.5213
   1418.76404     721.8004     439.9498   1418.76404     721.8004     439.9498
   1418.74878     721.2210     439.1757   1418.74878     721.2210     439.1757
   1418.73352     721.8962     440.2224   1418.73352     721.8962     440.2224
   1418.71826     722.0057     441.0075   1418.71826     722.0057     441.0075
   1418.70300     723.9301     441.9019   1418.70300     723.9301     441.9019
   1418.68774     725.1997     442.6365   1418.68774     725.1997     442.6365
   1418.67249     726.1030     442.4104   1418.67249     726.1030     442.4104
   1418.65723     726.0532     442.8234   1418.65723     726.0532     442.8234
   1418.64197     725.6200     443.9298   1418.64197     725.6200     443.9298
   1418.62671     725.8917     444.1249   1418.62671     725.8917     444.1249
   1418.61145     727.0638     445.0643   1418.61145     727.0638     445.0643
   1418.59619     727.8196     445.3720   1418.59619     727.8196     445.3720
   1418.58093     728.7962     446.9087   1418.58093     728.7962     446.9087
   1418.56567     730.2592     447.7062   1418.56567     730.2592     447.7062
   1418.55042     730.3176     447.7215   1418.55042     730.3176     447.7215
   1418.53516     729.7909     448.1863   1418.53516     729.7909     448.1863
   1418.51990     732.1824     449.3710   1418.51990     732.1824     449.3710
   1418.50464     732.1577     450.2558   1418.50464     732.1577     450.2558
   1418.48938     734.4303     449.6874   1418.48938     734.4303     449.6874
   1418.47412     734.4730     451.6185   1418.47412     734.4730     451.6185
   1418.45886     734.2484     451.9684   1418.45886     734.2484     451.9684
   1418.44360     733.8339     452.1712   1418.44360     733.8339     452.1712
   1418.42834     736.4176     453.5730   1418.42834     736.4176     453.5730
   1418.41309     736.6005     454.6960   1418.41309     736.6005     454.6960
   1418.39783     737.1742     455.3216   1418.39783     737.1742     455.3216
   1418.38257     738.1801     455.7729   1418.38257     738.1801     455.7729
   1418.36731     739.2977     456.4966   1418.36731     739.2977     456.4966
   1418.35205     739.2932     457.6021   1418.35205     739.2932     457.6021
   1418.33679     740.9670     458.7227   1418.33679     740.9670     458.7227
   1418.32153     741.2386     459.2763   1418.32153     741.2386     459.2763
   1418.30627     741.3920     460.3033   1418.30627     741.3920     460.3033
   1418.29102     742.9158     461.5139   1418.29102     742.9158     461.5139
   1418.27576     743.2916     461.9989   1418.27576     743.2916     461.9989
   1418.26050     744.1411     462.9967   1418.26050     744.1411     462.9967
   1418.24524     744.5052     463.7478   1418.24524     744.5052     463.7478
   1418.22998     745.9140     464.2999   1418.22998     745.9140     464.2999
   1418.21472     746.1072     464.6777   1418.21472     746.1072     464.6777
   1418.19946     748.4056     465.5347   1418.19946     748.4056     465.5347
   1418.18420     749.2223     466.7839   1418.18420     749.2223     466.7839
   1418.16895     750.1414     467.9960   1418.16895     750.1414     467.9960
   1418.15369     749.8868     469.6930   1418.15369     749.8868     469.6930
   1418.13843     750.8493     469.8883   1418.13843     750.8493     469.8883
   1418.12317     752.4149     470.5073   1418.12317     752.4149     470.5073
   1418.10791     752.0663     471.2411   1418.10791     752.0663     471.2411
   1418.09265     753.7019     472.5004   1418.09265     753.7019     472.5004
   1418.07739     754.6376     473.8706   1418.07739     754.6376     473.8706
   1418.06213     755.8109     475.2028   1418.06213     755.8109     475.2028
   1418.04688     757.2358     476.0841   1418.04688     757.2358     476.0841
   1418.03162     757.6722     476.9185   1418.03162     757.6722     476.9185
   1418.01636     759.2283     477.1110   1418.01636     759.2283     477.1110
   1418.00110     758.2839     477.9764   1418.00110     758.2839     477.9764
   1417.98584     761.1713     479.2335   1417.98584     761.1713     479.2335
   1417.97058     760.5374     480.1622   1417.97058     760.5374     480.1622
   1417.95532     761.7987     481.1409   1417.95532     761.7987     481.1409
   1417.94006     762.4860     481.8922   1417.94006     762.4860     481.8922
   1417.92480     763.5453     482.9672   1417.92480     763.5453     482.9672
   1417.90955     764.6778     484.2437   1417.90955     764.6778     484.2437
   1417.89429     766.2318     485.4761   1417.89429     766.2318     485.4761
   1417.87903     766.1993     486.7373   1417.87903     766.1993     486.7373
   1417.86377     767.0833     487.6516   1417.86377     767.0833     487.6516
   1417.84851     769.4651     489.2037   1417.84851     769.4651     489.2037
   1417.83325     769.6974     488.8070   1417.83325     769.6974     488.8070
   1417.81799     769.7053     490.5301   1417.81799     769.7053     490.5301
   1417.80273     772.0321     491.1858   1417.80273     772.0321     491.1858
   1417.78748     772.3131     493.2728   1417.78748     772.3131     493.2728
   1417.77222     773.3121     493.8227   1417.77222     773.3121     493.8227
   1417.75696     772.9603     495.0189   1417.75696     772.9603     495.0189
   1417.74170     775.1635     495.6867   1417.74170     775.1635     495.6867
   1417.72644     777.1647     496.8332   1417.72644     777.1647     496.8332
   1417.71118     776.4024     498.1253   1417.71118     776.4024     498.1253
   1417.69592     778.3769     499.0251   1417.69592     778.3769     499.0251
   1417.68066     778.4778     500.1355   1417.68066     778.4778     500.1355
   1417.66541     779.1645     502.0667   1417.66541     779.1645     502.0667
   1417.65015     781.5160     502.2808   1417.65015     781.5160     502.2808
   1417.63489     782.1382     502.7697   1417.63489     782.1382     502.7697
   1417.61963     782.4136     504.6842   1417.61963     782.4136     504.6842
   1417.60437     783.9894     506.2284   1417.60437     783.9894     506.2284
   1417.58911     785.8541     506.2121   1417.58911     785.8541     506.2121
   1417.57385     785.7318     507.8216   1417.57385     785.7318     507.8216
   1417.55859     786.0188     509.2514   1417.55859     786.0188     509.2514
   1417.54333     787.3493     511.0314   1417.54333     787.3493     511.0314
   1417.52808     788.6514     510.6493   1417.52808     788.6514     510.6493
   1417.51282     788.0168     511.6881   1417.51282     788.0168     511.6881
   1417.49756     791.6495     512.7805   1417.49756     791.6495     512.7805
   1417.48230     791.3074     514.2203   1417.48230     791.3074     514.2203
   1417.46704     792.0955     515.3531   1417.46704     792.0955     515.3531
   1417.45178     792.7433     516.2032   1417.45178     792.7433     516.2032
   1417.43652     794.2859     517.7314   1417.43652     794.2859     517.7314
   1417.42126     794.5967     518.6196   1417.42126     794.5967     518.6196
   1417.40601     796.0636     519.5552   1417.40601     796.0636     519.5552
   1417.39075     797.4651     520.5186   1417.39075     797.4651     520.5186
   1417.37549     799.2198     522.0336   1417.37549     799.2198     522.0336
   1417.36023     799.7437     522.6982   1417.36023     799.7437     522.6982
   1417.34497     800.1531     523.8887   1417.34497     800.1531     523.8887
   1417.32971     800.9764     524.5226   1417.32971     800.9764     524.5226
   1417.31445     801.6448     525.3598   1417.31445     801.6448     525.3598
   1417.29919     801.8492     525.9160   1417.29919     801.8492     525.9160
   1417.28394     804.0181     527.4989   1417.28394     804.0181     527.4989
   1417.26868     804.6825     528.1115   1417.26868     804.6825     528.1115
   1417.25342     804.4635     529.1737   1417.25342     804.4635     529.1737
   1417.23816     805.2829     530.2280   1417.23816     805.2829     530.2280
   1417.22290     808.4315     532.0150   1417.22290     808.4315     532.0150
   1417.20764     807.9540     532.5304   1417.20764     807.9540     532.5304
   1417.19238     809.0184     533.0117   1417.19238     809.0184     533.0117
   1417.17712     808.9193     534.1559   1417.17712     808.9193     534.1559
   1417.16187     810.2670     535.0631   1417.16187     810.2670     535.0631
   1417.14661     810.1573     535.4097   1417.14661     810.1573     535.4097
   1417.13135     812.0112     537.3440   1417.13135     812.0112     537.3440
   1417.11609     813.5156     537.7968   1417.11609     813.5156     537.7968
   1417.10083     812.4146     539.3707   1417.10083     812.4146     539.3707
   1417.08557     813.0363     539.2496   1417.08557     813.0363     539.2496
   1417.07031     814.2104     540.0062   1417.07031     814.2104     540.0062
   1417.05505     816.0422     540.9573   1417.05505     816.0422     540.9573
   1417.03979     816.3344     542.3507   1417.03979     816.3344     542.3507
   1417.02454     817.8245     543.5981   1417.02454     817.8245     543.5981
   1417.00928     817.2312     543.7708   1417.00928     817.2312     543.7708
   1416.99402     819.7078     544.1630   1416.99402     819.7078     544.1630
   1416.97876     819.6805     545.2943   1416.97876     819.6805     545.2943
   1416.96350     821.0146     545.2675   1416.96350     821.0146     545.2675
   1416.94824     820.4926     546.2637   1416.94824     820.4926     546.2637
   1416.93298     821.9813     547.6498   1416.93298     821.9813     547.6498
   1416.91772     821.3608     547.7866   1416.91772     821.3608     547.7866
   1416.90247     822.4434     547.7247   1416.90247     822.4434     547.7247
   1416.88721     823.7839     548.4410   1416.88721     823.7839     548.4410
   1416.87195     824.2371     549.3148   1416.87195     824.2371     549.3148
   1416.85669     823.3106     550.4210   1416.85669     823.3106     550.4210
   1416.84143     823.8938     550.6027   1416.84143     823.8938     550.6027
   1416.82617     825.4721     550.6281   1416.82617     825.4721     550.6281
   1416.81091     827.4901     551.6316   1416.81091     827.4901     551.6316
   1416.79565     826.4489     552.0415   1416.79565     826.4489     552.0415
   1416.78040     826.7069     552.2691   1416.78040     826.7069     552.2691
   1416.76514     827.5296     553.4557   1416.76514     827.5296     553.4557
   1416.74988     827.9850     553.1711   1416.74988     827.9850     553.1711
   1416.73462     827.7363     553.7126   1416.73462     827.7363     553.7126
   1416.71936     828.5057     554.1439   1416.71936     828.5057     554.1439
   1416.70410     829.1495     554.1919   1416.70410     829.1495     554.1919
   1416.68884     830.9576     554.0970   1416.68884     830.9576     554.0970
   1416.67358     829.3893     555.5419   1416.67358     829.3893     555.5419
   1416.65833     830.0591     554.6351   1416.65833     830.0591     554.6351
   1416.64307     830.3423     554.9880   1416.64307     830.3423     554.9880
   1416.62781     829.1759     555.4767   1416.62781     829.1759     555.4767
   1416.61255     831.0177     554.6035   1416.61255     831.0177     554.6035
   1416.59729     832.3111     555.2291   1416.59729     832.3111     555.2291
   1416.58203     830.8849     555.9275   1416.58203     830.8849     555.9275
   1416.56677     830.8672     555.5862   1416.56677     830.8672     555.5862
   1416.55151     832.1938     555.8500   1416.55151     832.1938     555.8500
   1416.53625     832.2350     555.1620   1416.53625     832.2350     555.1620
   1416.52100     832.2026     555.7165   1416.52100     832.2026     555.7165
   1416.50574     831.1047     555.2563   1416.50574     831.1047     555.2563
   1416.49048     833.7787     555.1265   1416.49048     833.7787     555.1265
   1416.47522     833.8176     556.3538   1416.47522     833.8176     556.3538
   1416.45996     832.7633     554.7386   1416.45996     832.7633     554.7386
   1416.44470     832.4185     555.1972   1416.44470     832.4185     555.1972
   1416.42944     833.0982     554.9661   1416.42944     833.0982     554.9661
   1416.41418     833.3080     555.0692   1416.41418     833.3080     555.0692
   1416.39893     834.0458     555.6526   1416.39893     834.0458     555.6526
   1416.38367     834.2258     553.9786   1416.38367     834.2258     553.9786
   1416.36841     834.4423     554.6227   1416.36841     834.4423     554.6227
   1416.35315     834.1734     553.7719   1416.35315     834.1734     553.7719
   1416.33789     832.9628     553.5869   1416.33789     832.9628     553.5869
   1416.32263     831.5444     553.1710   1416.32263     831.5444     553.1710
   1416.30737     831.8909     553.1070   1416.30737     831.8909     553.1070
   1416.29211     832.6780     552.6618   1416.29211     832.6780     552.6618
   1416.27686     832.2001     552.7373   1416.27686     832.2001     552.7373
   1416.26160     832.0709     551.9634   1416.26160     832.0709     551.9634
   1416.24634     832.7835     552.5391   1416.24634     832.7835     552.5391
   1416.23108     831.7758     551.3951   1416.23108     831.7758     551.3951
   1416.21582     831.9998     550.9731   1416.21582     831.9998     550.9731
   1416.20056     832.2395     550.1710   1416.20056     832.2395     550.1710
   1416.18530     830.7186     549.3522   1416.18530     830.7186     549.3522
   1416.17004     831.7806     548.3977   1416.17004     831.7806     548.3977
   1416.15479     832.1472     548.9700   1416.15479     832.1472     548.9700
   1416.13953     829.9705     548.6340   1416.13953     829.9705     548.6340
   1416.12427     831.4481     548.3710   1416.12427     831.4481     548.3710
   1416.10901     830.7972     547.2757   1416.10901     830.7972     547.2757
   1416.09375     829.9379     546.1384   1416.09375     829.9379     546.1384
   1416.07849     830.2606     546.4913   1416.07849     830.2606     546.4913
   1416.06323     828.7914     544.7957   1416.06323     828.7914     544.7957
   1416.04797     829.3077     544.9084   1416.04797     829.3077     544.9084
   1416.03271     828.5629     544.3628   1416.03271     828.5629     544.3628
   1416.01746     827.3123     544.0572   1416.01746     827.3123     544.0572
   1416.00220     827.8350     542.8188   1416.00220     827.8350     542.8188
   1415.98694     826.9982     542.4130   1415.98694     826.9982     542.4130
   1415.97168     827.2899     541.2612   1415.97168     827.2899     541.2612
   1415.95642     825.5261     540.8858   1415.95642     825.5261     540.8858
   1415.94116     825.7401     539.2190   1415.94116     825.7401     539.2190
   1415.92590     826.1044     539.3337   1415.92590     826.1044     539.3337
   1415.91064     825.2945     538.4039   1415.91064     825.2945     538.4039
   1415.89539     823.3233     537.9209   1415.89539     823.3233     537.9209
   1415.88013     823.5322     536.7745   1415.88013     823.5322     536.7745
   1415.86487     822.9306     536.8528   1415.86487     822.9306     536.8528
   1415.84961     823.7764     536.3152   1415.84961     823.7764     536.3152
   1415.83435     823.1103     535.2245   1415.83435     823.1103     535.2245
   1415.81909     821.1055     534.3676   1415.81909     821.1055     534.3676
   1415.80383     821.6475     532.6584   1415.80383     821.6475     532.6584
   1415.78857     818.9335     533.6320   1415.78857     818.9335     533.6320
   1415.77332     819.8511     531.9715   1415.77332     819.8511     531.9715
   1415.75806     819.2729     531.6743   1415.75806     819.2729     531.6743
   1415.74280     817.6320     529.9344   1415.74280     817.6320     529.9344
   1415.72754     817.8729     529.3178   1415.72754     817.8729     529.3178
   1415.71228     816.5125     528.2733   1415.71228     816.5125     528.2733
   1415.69702     816.4446     528.4334   1415.69702     816.4446     528.4334
   1415.68176     815.1578     526.7576   1415.68176     815.1578     526.7576
   1415.66650     814.2684     525.4846   1415.66650     814.2684     525.4846
   1415.65125     812.6710     525.9409   1415.65125     812.6710     525.9409
   1415.63599     813.1236     524.8480   1415.63599     813.1236     524.8480
   1415.62073     813.2794     523.7936   1415.62073     813.2794     523.7936
   1415.60547     811.6725     522.0540   1415.60547     811.6725     522.0540
   1415.59021     810.8111     522.3856   1415.59021     810.8111     522.3856
   1415.57495     809.9654     522.3686   1415.57495     809.9654     522.3686
   1415.55969     809.8674     521.1999   1415.55969     809.8674     521.1999
   1415.54443     806.4653     519.6541   1415.54443     806.4653     519.6541
   1415.52917     806.8337     518.0714   1415.52917     806.8337     518.0714
   1415.51392     805.6402     517.2078   1415.51392     805.6402     517.2078
   1415.49866     805.9106     516.8206   1415.49866     805.9106     516.8206
   1415.48340     804.2715     515.8102   1415.48340     804.2715     515.8102
   1415.46814     803.3019     514.2684   1415.46814     803.3019     514.2684
   1415.45288     801.9140     513.9543   1415.45288     801.9140     513.9543
   1415.43762     800.6360     513.6859   1415.43762     800.6360     513.6859
   1415.42236     800.3447     512.3380   1415.42236     800.3447     512.3380
   1415.40710     798.2635     511.1867   1415.40710     798.2635     511.1867
   1415.39185     799.3381     509.8317   1415.39185     799.3381     509.8317
   1415.37659     797.9364     509.1620   1415.37659     797.9364     509.1620
   1415.36133     795.3543     508.5162   1415.36133     795.3543     508.5162
   1415.34607     794.1968     507.3813   1415.34607     794.1968     507.3813
   1415.33081     795.2856     505.9467   1415.33081     795.2856     505.9467
   1415.31555     791.2707     505.8625   1415.31555     791.2707     505.8625
   1415.30029     791.7372     504.7546   1415.30029     791.7372     504.7546
   1415.28503     791.0983     503.4822   1415.28503     791.0983     503.4822
   1415.26978     788.4464     501.6241   1415.26978     788.4464     501.6241
   1415.25452     786.6349     500.7497   1415.25452     786.6349     500.7497
   1415.23926     787.8461     499.3206   1415.23926     787.8461     499.3206
   1415.22400     784.9412     499.3630   1415.22400     784.9412     499.3630
   1415.20874     783.1348     498.7344   1415.20874     783.1348     498.7344
   1415.19348     782.8966     497.5423   1415.19348     782.8966     497.5423
   1415.17822     781.5480     497.1310   1415.17822     781.5480     497.1310
   1415.16296     780.1586     495.1079   1415.16296     780.1586     495.1079
   1415.14771     777.9007     494.8113   1415.14771     777.9007     494.8113
   1415.13245     776.1934     493.9926   1415.13245     776.1934     493.9926
   1415.11719     775.4816     491.9839   1415.11719     775.4816     491.9839
   1415.10193     774.2921     490.9207   1415.10193     774.2921     490.9207
   1415.08667     772.2673     490.7333   1415.08667     772.2673     490.7333
   1415.07141     770.2726     488.9132   1415.07141     770.2726     488.9132
   1415.05615     770.5947     487.5691   1415.05615     770.5947     487.5691
   1415.04089     767.9274     487.3188   1415.04089     767.9274     487.3188
   1415.02563     765.6765     486.0935   1415.02563     765.6765     486.0935
   1415.01038     763.7783     483.9878   1415.01038     763.7783     483.9878
   1414.99512     762.9926     484.5446   1414.99512     762.9926     484.5446
   1414.97986     762.6119     482.0349   1414.97986     762.6119     482.0349
   1414.96460     759.6176     481.6799   1414.96460     759.6176     481.6799
   1414.94934     758.4291     480.5702   1414.94934     758.4291     480.5702
   1414.93408     756.9960     479.0367   1414.93408     756.9960     479.0367
   1414.91882     754.4911     477.9582   1414.91882     754.4911     477.9582
   1414.90356     752.4665     476.9013   1414.90356     752.4665     476.9013
   1414.88831     751.2926     474.9354   1414.88831     751.2926     474.9354
   1414.87305     750.2188     474.2755   1414.87305     750.2188     474.2755
   1414.85779     748.4196     472.9778   1414.85779     748.4196     472.9778
   1414.84253     745.5220     471.4634   1414.84253     745.5220     471.4634
   1414.82727     743.8196     470.1429   1414.82727     743.8196     470.1429
   1414.81201     741.9736     469.0822   1414.81201     741.9736     469.0822
   1414.79675     740.0427     468.0116   1414.79675     740.0427     468.0116
   1414.78149     738.2780     467.0783   1414.78149     738.2780     467.0783
   1414.76624     736.4711     465.2794   1414.76624     736.4711     465.2794
   1414.75098     733.8634     464.1503   1414.75098     733.8634     464.1503
   1414.73572     733.3036     463.6432   1414.73572     733.3036     463.6432
   1414.72046     729.0541     461.5465   1414.72046     729.0541     461.5465
   1414.70520     728.5724     460.9360   1414.70520     728.5724     460.9360
   1414.68994     726.2428     458.7445   1414.68994     726.2428     458.7445
   1414.67468     723.8749     457.6882   1414.67468     723.8749     457.6882
   1414.65942     721.8347     456.3871   1414.65942     721.8347     456.3871
   1414.64417     719.1161     454.8579   1414.64417     719.1161     454.8579
   1414.62891     716.5970     454.0449   1414.62891     716.5970     454.0449
   1414.61365     714.1266     452.1784   1414.61365     714.1266     452.1784
   1414.59839     712.3317     450.5174   1414.59839     712.3317     450.5174
   1414.58313     710.4579     449.6465   1414.58313     710.4579     449.6465
   1414.56787     708.0138     448.7901   1414.56787     708.0138     448.7901
   1414.55261     706.1572     446.6801   1414.55261     706.1572     446.6801
   1414.53735     703.0406     445.0734   1414.53735     703.0406     445.0734
   1414.52209     701.5367     444.0433   1414.52209     701.5367     444.0433
   1414.50684     699.1818     442.2213   1414.50684     699.1818     442.2213
   1414.49158     696.8107     441.3672   1414.49158     696.8107     441.3672
   1414.47632     693.3264     439.4678   1414.47632     693.3264     439.4678
   1414.46106     691.4321     438.3192   1414.46106     691.4321     438.3192
   1414.44580     689.7370     436.8046   1414.44580     689.7370     436.8046
   1414.43054     687.0837     435.2437   1414.43054     687.0837     435.2437
   1414.41528     685.4875     434.4998   1414.41528     685.4875     434.4998
   1414.40002     682.2820     432.3684   1414.40002     682.2820     432.3684
   1414.38477     679.9832     430.0537   1414.38477     679.9832     430.0537
   1414.36951     677.2433     428.9503   1414.36951     677.2433     428.9503
   1414.35425     674.2085     427.7470   1414.35425     674.2085     427.7470
   1414.33899     671.4379     426.0831   1414.33899     671.4379     426.0831
   1414.32373     669.3040     424.8562   1414.32373     669.3040     424.8562
   1414.30847     666.4395     423.4150   1414.30847     666.4395     423.4150
   1414.29321     663.1818     421.0034   1414.29321     663.1818     421.0034
   1414.27795     660.8297     420.1940   1414.27795     660.8297     420.1940
   1414.26270     659.0522     418.3714   1414.26270     659.0522     418.3714
   1414.24744     655.7002     416.8346   1414.24744     655.7002     416.8346
   1414.23218     653.1365     414.8844   1414.23218     653.1365     414.8844
   1414.21692     650.3732     413.2063   1414.21692     650.3732     413.2063
   1414.20166     646.7704     411.1938   1414.20166     646.7704     411.1938
   1414.18640     644.1517     410.6845   1414.18640     644.1517     410.6845
   1414.17114     642.2792     408.3690   1414.17114     642.2792     408.3690
   1414.15588     637.6267     407.3270   1414.15588     637.6267     407.3270
   1414.14062     635.9966     405.1652   1414.14062     635.9966     405.1652
   1414.12537     632.6871     403.9020   1414.12537     632.6871     403.9020
   1414.11011     630.5381     402.1265   1414.11011     630.5381     402.1265
   1414.09485     627.4878     400.1138   1414.09485     627.4878     400.1138
   1414.07959     625.8436     399.4289   1414.07959     625.8436     399.4289
   1414.06433     621.0071     397.1507   1414.06433     621.0071     397.1507
   1414.04907     618.8094     395.9332   1414.04907     618.8094     395.9332
   1414.03381     616.2728     393.6409   1414.03381     616.2728     393.6409
   1414.01855     614.6449     392.2864   1414.01855     614.6449     392.2864
   1414.00330     636.9165     398.6840   1414.00330     636.9165     398.6840
   1413.98804     609.9332     389.6163   1413.98804     609.9332     389.6163
   1413.97278     604.5475     386.8213   1413.97278     604.5475     386.8213
   1413.95752     602.0273     384.8561   1413.95752     602.0273     384.8561
   1413.94226     598.0082     383.4420   1413.94226     598.0082     383.4420
   1413.92700     594.8384     381.7513   1413.92700     594.8384     381.7513
   1413.91174     591.8694     380.3710   1413.91174     591.8694     380.3710
   1413.89648     588.8105     378.0569   1413.89648     588.8105     378.0569
   1413.88123     585.7473     376.7646   1413.88123     585.7473     376.7646
   1413.86597     582.8023     374.9614   1413.86597     582.8023     374.9614
   1413.85071     580.1838     373.7384   1413.85071     580.1838     373.7384
   1413.83545     576.8879     371.7411   1413.83545     576.8879     371.7411
   1413.82019     572.9319     370.1176   1413.82019     572.9319     370.1176
   1413.80493     571.2397     367.4306   1413.80493     571.2397     367.4306
   1413.78967     568.1534     366.2719   1413.78967     568.1534     366.2719
   1413.77441     564.4815     365.1683   1413.77441     564.4815     365.1683
   1413.75916     561.7365     363.2354   1413.75916     561.7365     363.2354
   1413.74390     558.5358     361.9220   1413.74390     558.5358     361.9220
   1413.72864     555.2717     359.9914   1413.72864     555.2717     359.9914
   1413.71338     552.0075     357.8585   1413.71338     552.0075     357.8585
   1413.69812     549.6337     356.4406   1413.69812     549.6337     356.4406
   1413.68286     545.8472     354.5858   1413.68286     545.8472     354.5858
   1413.66760     543.5447     352.4003   1413.66760     543.5447     352.4003
   1413.65234     541.2159     351.3435   1413.65234     541.2159     351.3435
   1413.63708     538.0591     349.5640   1413.63708     538.0591     349.5640
   1413.62183     534.2566     348.2830   1413.62183     534.2566     348.2830
   1413.60657     530.6083     346.1011   1413.60657     530.6083     346.1011
   1413.59131     528.4901     345.1280   1413.59131     528.4901     345.1280
   1413.57605     524.6891     342.7990   1413.57605     524.6891     342.7990
   1413.56079     521.5710     340.9673   1413.56079     521.5710     340.9673
   1413.54553     519.7356     340.0619   1413.54553     519.7356     340.0619
   1413.53027     515.4379     337.4738   1413.53027     515.4379     337.4738
   1413.51501     512.8557     336.2682   1413.51501     512.8557     336.2682
   1413.49976     508.8503     334.4109   1413.49976     508.8503     334.4109
   1413.48450     506.1366     332.9899   1413.48450     506.1366     332.9899
   1413.46924     503.6083     331.3947   1413.46924     503.6083     331.3947
   1413.45398     500.6277     329.6250   1413.45398     500.6277     329.6250
   1413.43872     497.6168     328.3490   1413.43872     497.6168     328.3490
   1413.42346     494.7543     326.3742   1413.42346     494.7543     326.3742
   1413.40820     492.0175     325.2130   1413.40820     492.0175     325.2130
   1413.39294     489.2607     323.4012   1413.39294     489.2607     323.4012
   1413.37769     486.0529     322.1182   1413.37769     486.0529     322.1182
   1413.36243     483.9724     320.6455   1413.36243     483.9724     320.6455
   1413.34717     480.1198     318.7913   1413.34717     480.1198     318.7913
   1413.33191     477.9130     316.8299   1413.33191     477.9130     316.8299
   1413.31665     474.9669     315.8087   1413.31665     474.9669     315.8087
   1413.30139     472.2839     314.5844   1413.30139     472.2839     314.5844
   1413.28613     469.7675     312.7804   1413.28613     469.7675     312.7804
   1413.27087     466.3739     311.3660   1413.27087     466.3739     311.3660
   1413.25562     464.1500     309.9905   1413.25562     464.1500     309.9905
   1413.24036     461.6475     308.7169   1413.24036     461.6475     308.7169
   1413.22510     458.6027     307.0719   1413.22510     458.6027     307.0719
   1413.20984     456.2602     305.8118   1413.20984     456.2602     305.8118
   1413.19458     453.5076     304.4487   1413.19458     453.5076     304.4487
   1413.17932     450.8264     303.1817   1413.17932     450.8264     303.1817
   1413.16406     448.4850     301.7331   1413.16406     448.4850     301.7331
   1413.14880     446.0157     300.2558   1413.14880     446.0157     300.2558
   1413.13354     444.4458     299.1215   1413.13354     444.4458     299.1215
   1413.11829     440.9687     298.0585   1413.11829     440.9687     298.0585
   1413.10303     438.8921     296.4216   1413.10303     438.8921     296.4216
   1413.08777     437.1860     294.9504   1413.08777     437.1860     294.9504
   1413.07251     434.1572     294.1718   1413.07251     434.1572     294.1718
   1413.05725     431.3026     292.4803   1413.05725     431.3026     292.4803
   1413.04199     429.1387     292.0151   1413.04199     429.1387     292.0151
   1413.02673     427.4344     290.5288   1413.02673     427.4344     290.5288
   1413.01147     424.9539     289.6293   1413.01147     424.9539     289.6293
   1412.99622     422.3802     288.3428   1412.99622     422.3802     288.3428
   1412.98096     420.9575     287.6449   1412.98096     420.9575     287.6449
   1412.96570     418.5433     286.8192   1412.96570     418.5433     286.8192
   1412.95044     415.9539     284.9563   1412.95044     415.9539     284.9563
   1412.93518     414.3333     284.2881   1412.93518     414.3333     284.2881
   1412.91992     412.9761     283.3961   1412.91992     412.9761     283.3961
   1412.90466     411.4524     282.4767   1412.90466     411.4524     282.4767
   1412.88940     408.8479     280.8928   1412.88940     408.8479     280.8928
   1412.87415     406.9395     280.4668   1412.87415     406.9395     280.4668
   1412.85889     405.3050     279.5684   1412.85889     405.3050     279.5684
   1412.84363     403.2191     278.9205   1412.84363     403.2191     278.9205
   1412.82837     401.9077     278.2392   1412.82837     401.9077     278.2392
   1412.81311     400.3778     277.3651   1412.81311     400.3778     277.3651
   1412.79785     398.1250     276.4894   1412.79785     398.1250     276.4894
   1412.78259     396.3888     275.8576   1412.78259     396.3888     275.8576
   1412.76733     395.6515     275.3423   1412.76733     395.6515     275.3423
   1412.75208     393.7876     274.5365   1412.75208     393.7876     274.5365
   1412.73682     392.4207     273.9176   1412.73682     392.4207     273.9176
   1412.72156     391.4015     273.7782   1412.72156     391.4015     273.7782
   1412.70630     389.0655     272.2443   1412.70630     389.0655     272.2443
   1412.69104     388.5229     272.2972   1412.69104     388.5229     272.2972
   1412.67578     387.0779     272.0658   1412.67578     387.0779     272.0658
   1412.66052     386.3325     271.7128   1412.66052     386.3325     271.7128
   1412.64526     385.0526     271.3704   1412.64526     385.0526     271.3704
   1412.63000     384.6644     270.9579   1412.63000     384.6644     270.9579
   1412.61475     383.4444     270.5795   1412.61475     383.4444     270.5795
   1412.59949     381.9483     270.0573   1412.59949     381.9483     270.0573
   1412.58423     381.3206     269.8875   1412.58423     381.3206     269.8875
   1412.56897     380.4724     269.9536   1412.56897     380.4724     269.9536
   1412.55371     379.6039     269.6708   1412.55371     379.6039     269.6708
   1412.53845     379.3124     269.8376   1412.53845     379.3124     269.8376
   1412.52319     378.0353     268.6462   1412.52319     378.0353     268.6462
   1412.50793     378.0390     269.5557   1412.50793     378.0390     269.5557
   1412.49268     376.5801     269.7397   1412.49268     376.5801     269.7397
   1412.47742     376.4636     269.3409   1412.47742     376.4636     269.3409
   1412.46216     376.6320     269.5511   1412.46216     376.6320     269.5511
   1412.44690     375.3549     269.9656   1412.44690     375.3549     269.9656
   1412.43164     375.7723     269.4761   1412.43164     375.7723     269.4761
   1412.41638     375.3353     269.9397   1412.41638     375.3353     269.9397
   1412.40112     375.0756     270.3717   1412.40112     375.0756     270.3717
   1412.38586     374.9940     270.2716   1412.38586     374.9940     270.2716
   1412.37061     374.9689     270.6515   1412.37061     374.9689     270.6515
   1412.35535     374.5172     271.2832   1412.35535     374.5172     271.2832
   1412.34009     374.6766     271.1835   1412.34009     374.6766     271.1835
   1412.32483     374.7920     271.4611   1412.32483     374.7920     271.4611
   1412.30957     374.6317     272.2864   1412.30957     374.6317     272.2864
   1412.29431     374.7291     272.7273   1412.29431     374.7291     272.7273
   1412.27905     374.9746     273.4010   1412.27905     374.9746     273.4010
   1412.26379     375.8076     273.4795   1412.26379     375.8076     273.4795
   1412.24854     376.1330     274.8757   1412.24854     376.1330     274.8757
   1412.23328     376.8265     275.3158   1412.23328     376.8265     275.3158
   1412.21802     376.9921     275.7054   1412.21802     376.9921     275.7054
   1412.20276     377.4590     276.5188   1412.20276     377.4590     276.5188