#     FILENAME=!Skynet_57533_lach-hhg-195-2_20797_21208.cyb.fits
#     BASENAME=Skynet_57533_lach-hhg-195-2_20797_21208
#     SRC_NAME=lach-hhg-195-2
#     OBSERVER=ccmadison16_9505
#     DATE_OBS=2016-05-25T18:33:48.680
#        OBSID=20797
#      SCANNUM=21208
#          MJD=57533.7745
#          UTC=66918
#     SCANTYPE=track
#     DATAMODE=HIRES
#     TUNEFREQ=1420.0000
# Actual_FREQ1=1420.0000
# Actual_FREQ2=1420.0000
#    LO1Tuning=6870.000
#     RFFILTER=1355_1435
#        OBSBW=-15.6250
#        NCHAN=1024 
#        FOCUS=37.0709
#           RA=06:17:49.81
#          DEC=15:54:12.74
#      RA(hrs)=6.297200
#     DEC(deg)=15.903500
#    AZIM(deg)=150.494
#    ELEV(deg)=64.874
#     IFattens=10.00, 9.00
#      WARNING=None
#    TCAL_XL1=7.9635
#    TCAL_YR1=9.1340
#    TCAL_XL2=7.9635
#    TCAL_YR2=9.1340
#     TRX_XL1=11.7060
#     TRX_YR1=11.7060
#     TRX_XL2=11.7060
#     TRX_YR2=11.7060
#        TAVE=1.0000
#Freq1(MHz)          XL1          YR1  Freq2(MHz)          XL2          YR2 

   1427.81250     365.5051     261.9914   1427.81250     365.5051     261.9914
   1427.79724     365.7220     263.1603   1427.79724     365.7220     263.1603
   1427.78198     366.0875     263.7779   1427.78198     366.0875     263.7779
   1427.76672     367.0250     264.9563   1427.76672     367.0250     264.9563
   1427.75146     368.1206     265.5288   1427.75146     368.1206     265.5288
   1427.73621     368.8336     266.9226   1427.73621     368.8336     266.9226
   1427.72095     369.5571     268.0038   1427.72095     369.5571     268.0038
   1427.70569     370.0871     269.3041   1427.70569     370.0871     269.3041
   1427.69043     371.1839     270.3606   1427.69043     371.1839     270.3606
   1427.67517     371.9678     271.3773   1427.67517     371.9678     271.3773
   1427.65991     373.2834     272.5897   1427.65991     373.2834     272.5897
   1427.64465     374.0444     273.9310   1427.64465     374.0444     273.9310
   1427.62939     376.1726     275.3741   1427.62939     376.1726     275.3741
   1427.61414     376.9387     276.8973   1427.61414     376.9387     276.8973
   1427.59888     377.8533     277.3977   1427.59888     377.8533     277.3977
   1427.58362     379.4930     278.8695   1427.58362     379.4930     278.8695
   1427.56836     380.4735     280.2899   1427.56836     380.4735     280.2899
   1427.55310     381.8880     282.4463   1427.55310     381.8880     282.4463
   1427.53784     383.4995     283.1127   1427.53784     383.4995     283.1127
   1427.52258     384.9608     284.5049   1427.52258     384.9608     284.5049
   1427.50732     387.2631     286.2816   1427.50732     387.2631     286.2816
   1427.49207     387.8736     287.7314   1427.49207     387.8736     287.7314
   1427.47681     390.2476     289.2381   1427.47681     390.2476     289.2381
   1427.46155     391.7903     290.7204   1427.46155     391.7903     290.7204
   1427.44629     393.7445     292.4766   1427.44629     393.7445     292.4766
   1427.43103     394.8619     294.0925   1427.43103     394.8619     294.0925
   1427.41577     396.4865     295.4860   1427.41577     396.4865     295.4860
   1427.40051     399.0586     297.4117   1427.40051     399.0586     297.4117
   1427.38525     400.9867     298.7736   1427.38525     400.9867     298.7736
   1427.37000     403.4331     300.4070   1427.37000     403.4331     300.4070
   1427.35474     405.0686     302.1704   1427.35474     405.0686     302.1704
   1427.33948     407.3617     303.4843   1427.33948     407.3617     303.4843
   1427.32422     409.8210     305.4006   1427.32422     409.8210     305.4006
   1427.30896     411.3543     307.2225   1427.30896     411.3543     307.2225
   1427.29370     413.8000     309.2953   1427.29370     413.8000     309.2953
   1427.27844     416.7476     310.8352   1427.27844     416.7476     310.8352
   1427.26318     418.5258     312.7416   1427.26318     418.5258     312.7416
   1427.24792     420.6922     314.3394   1427.24792     420.6922     314.3394
   1427.23267     423.6355     316.4631   1427.23267     423.6355     316.4631
   1427.21741     425.6283     318.0531   1427.21741     425.6283     318.0531
   1427.20215     427.7847     320.4619   1427.20215     427.7847     320.4619
   1427.18689     430.3841     322.2301   1427.18689     430.3841     322.2301
   1427.17163     433.3173     324.0601   1427.17163     433.3173     324.0601
   1427.15637     436.1462     325.4021   1427.15637     436.1462     325.4021
   1427.14111     438.8996     327.7591   1427.14111     438.8996     327.7591
   1427.12585     440.9935     329.5281   1427.12585     440.9935     329.5281
   1427.11060     444.8999     331.0886   1427.11060     444.8999     331.0886
   1427.09534     446.8599     333.0518   1427.09534     446.8599     333.0518
   1427.08008     448.4609     335.4154   1427.08008     448.4609     335.4154
   1427.06482     452.2284     337.6064   1427.06482     452.2284     337.6064
   1427.04956     455.0401     339.0121   1427.04956     455.0401     339.0121
   1427.03430     458.2831     341.5767   1427.03430     458.2831     341.5767
   1427.01904     460.3672     343.2784   1427.01904     460.3672     343.2784
   1427.00378     464.5015     345.3038   1427.00378     464.5015     345.3038
   1426.98853     466.7525     346.9430   1426.98853     466.7525     346.9430
   1426.97327     470.1790     349.0647   1426.97327     470.1790     349.0647
   1426.95801     472.4329     351.1256   1426.95801     472.4329     351.1256
   1426.94275     475.6281     352.8832   1426.94275     475.6281     352.8832
   1426.92749     479.0659     354.6260   1426.92749     479.0659     354.6260
   1426.91223     482.2481     357.0666   1426.91223     482.2481     357.0666
   1426.89697     485.2709     358.9348   1426.89697     485.2709     358.9348
   1426.88171     488.8706     361.0387   1426.88171     488.8706     361.0387
   1426.86646     491.6718     362.8235   1426.86646     491.6718     362.8235
   1426.85120     494.5811     364.6976   1426.85120     494.5811     364.6976
   1426.83594     498.5185     366.5701   1426.83594     498.5185     366.5701
   1426.82068     501.1919     368.3615   1426.82068     501.1919     368.3615
   1426.80542     504.8507     370.5974   1426.80542     504.8507     370.5974
   1426.79016     507.1178     372.8302   1426.79016     507.1178     372.8302
   1426.77490     511.3389     374.5365   1426.77490     511.3389     374.5365
   1426.75964     514.0406     376.6808   1426.75964     514.0406     376.6808
   1426.74438     518.1682     378.3062   1426.74438     518.1682     378.3062
   1426.72913     520.8576     380.1061   1426.72913     520.8576     380.1061
   1426.71387     523.8809     382.1352   1426.71387     523.8809     382.1352
   1426.69861     527.5013     384.4492   1426.69861     527.5013     384.4492
   1426.68335     529.6895     386.3625   1426.68335     529.6895     386.3625
   1426.66809     534.2078     387.6549   1426.66809     534.2078     387.6549
   1426.65283     537.9565     389.6505   1426.65283     537.9565     389.6505
   1426.63757     540.8720     391.3913   1426.63757     540.8720     391.3913
   1426.62231     545.3880     395.3470   1426.62231     545.3880     395.3470
   1426.60706     547.3413     395.9296   1426.60706     547.3413     395.9296
   1426.59180     550.4155     397.2048   1426.59180     550.4155     397.2048
   1426.57654     554.5883     398.9713   1426.57654     554.5883     398.9713
   1426.56128     558.0189     400.0385   1426.56128     558.0189     400.0385
   1426.54602     560.5864     402.2279   1426.54602     560.5864     402.2279
   1426.53076     564.5484     403.8027   1426.53076     564.5484     403.8027
   1426.51550     568.2832     406.0488   1426.51550     568.2832     406.0488
   1426.50024     571.0461     407.7043   1426.50024     571.0461     407.7043
   1426.48499     574.5989     409.4775   1426.48499     574.5989     409.4775
   1426.46973     578.1329     411.3959   1426.46973     578.1329     411.3959
   1426.45447     581.2648     412.8000   1426.45447     581.2648     412.8000
   1426.43921     584.4745     414.3865   1426.43921     584.4745     414.3865
   1426.42395     587.2186     416.6678   1426.42395     587.2186     416.6678
   1426.40869     592.0048     417.8849   1426.40869     592.0048     417.8849
   1426.39343     594.2226     420.0092   1426.39343     594.2226     420.0092
   1426.37817     597.4622     421.2855   1426.37817     597.4622     421.2855
   1426.36292     600.6078     422.7896   1426.36292     600.6078     422.7896
   1426.34766     604.8116     424.4581   1426.34766     604.8116     424.4581
   1426.33240     608.3337     425.6800   1426.33240     608.3337     425.6800
   1426.31714     610.7605     427.8509   1426.31714     610.7605     427.8509
   1426.30188     613.6815     429.6872   1426.30188     613.6815     429.6872
   1426.28662     616.6863     430.8520   1426.28662     616.6863     430.8520
   1426.27136     620.8685     432.1088   1426.27136     620.8685     432.1088
   1426.25610     624.5237     434.1738   1426.25610     624.5237     434.1738
   1426.24084     626.6878     434.6578   1426.24084     626.6878     434.6578
   1426.22559     629.6789     436.4381   1426.22559     629.6789     436.4381
   1426.21033     633.2430     437.8040   1426.21033     633.2430     437.8040
   1426.19507     636.4063     439.4060   1426.19507     636.4063     439.4060
   1426.17981     639.6002     440.4893   1426.17981     639.6002     440.4893
   1426.16455     642.3486     442.3824   1426.16455     642.3486     442.3824
   1426.14929     646.3121     443.2868   1426.14929     646.3121     443.2868
   1426.13403     648.7219     444.5889   1426.13403     648.7219     444.5889
   1426.11877     651.2880     446.3819   1426.11877     651.2880     446.3819
   1426.10352     655.2601     447.4613   1426.10352     655.2601     447.4613
   1426.08826     657.9695     449.2953   1426.08826     657.9695     449.2953
   1426.07300     661.1755     450.4188   1426.07300     661.1755     450.4188
   1426.05774     662.6364     450.3049   1426.05774     662.6364     450.3049
   1426.04248     667.2206     452.5844   1426.04248     667.2206     452.5844
   1426.02722     669.7144     453.7756   1426.02722     669.7144     453.7756
   1426.01196     671.7529     453.7877   1426.01196     671.7529     453.7877
   1425.99670     674.4387     456.2615   1425.99670     674.4387     456.2615
   1425.98145     676.7832     456.2928   1425.98145     676.7832     456.2928
   1425.96619     680.5367     458.2771   1425.96619     680.5367     458.2771
   1425.95093     684.3862     459.6516   1425.95093     684.3862     459.6516
   1425.93567     685.3699     460.4762   1425.93567     685.3699     460.4762
   1425.92041     688.2028     461.6425   1425.92041     688.2028     461.6425
   1425.90515     690.8363     462.7513   1425.90515     690.8363     462.7513
   1425.88989     693.1232     463.9022   1425.88989     693.1232     463.9022
   1425.87463     695.9880     465.4605   1425.87463     695.9880     465.4605
   1425.85938     698.7059     466.2895   1425.85938     698.7059     466.2895
   1425.84412     701.9831     466.9918   1425.84412     701.9831     466.9918
   1425.82886     701.3156     468.2628   1425.82886     701.3156     468.2628
   1425.81360     707.0527     468.5747   1425.81360     707.0527     468.5747
   1425.79834     707.9112     469.3623   1425.79834     707.9112     469.3623
   1425.78308     709.7814     470.1622   1425.78308     709.7814     470.1622
   1425.76782     713.0821     472.1333   1425.76782     713.0821     472.1333
   1425.75256     715.6700     472.9456   1425.75256     715.6700     472.9456
   1425.73730     716.6667     473.1580   1425.73730     716.6667     473.1580
   1425.72205     719.1358     474.7550   1425.72205     719.1358     474.7550
   1425.70679     720.4761     475.7568   1425.70679     720.4761     475.7568
   1425.69153     724.1028     476.3139   1425.69153     724.1028     476.3139
   1425.67627     725.5049     476.6638   1425.67627     725.5049     476.6638
   1425.66101     729.2950     477.8782   1425.66101     729.2950     477.8782
   1425.64575     729.4590     478.6797   1425.64575     729.4590     478.6797
   1425.63049     731.9373     479.7021   1425.63049     731.9373     479.7021
   1425.61523     733.2790     480.3709   1425.61523     733.2790     480.3709
   1425.59998     735.6945     481.0981   1425.59998     735.6945     481.0981
   1425.58472     737.1755     482.1487   1425.58472     737.1755     482.1487
   1425.56946     740.0353     482.3498   1425.56946     740.0353     482.3498
   1425.55420     741.0455     483.5870   1425.55420     741.0455     483.5870
   1425.53894     743.5480     484.4050   1425.53894     743.5480     484.4050
   1425.52368     745.5101     485.2388   1425.52368     745.5101     485.2388
   1425.50842     746.0015     485.2855   1425.50842     746.0015     485.2855
   1425.49316     746.4313     486.5256   1425.49316     746.4313     486.5256
   1425.47791     750.7249     487.0945   1425.47791     750.7249     487.0945
   1425.46265     751.0817     486.3240   1425.46265     751.0817     486.3240
   1425.44739     751.4242     487.8472   1425.44739     751.4242     487.8472
   1425.43213     753.9191     489.4753   1425.43213     753.9191     489.4753
   1425.41687     756.9006     489.0923   1425.41687     756.9006     489.0923
   1425.40161     757.6481     489.7910   1425.40161     757.6481     489.7910
   1425.38635     758.9415     490.7063   1425.38635     758.9415     490.7063
   1425.37109     760.1862     491.5210   1425.37109     760.1862     491.5210
   1425.35583     760.2354     492.2101   1425.35583     760.2354     492.2101
   1425.34058     760.7683     492.9311   1425.34058     760.7683     492.9311
   1425.32532     764.3134     492.8591   1425.32532     764.3134     492.8591
   1425.31006     765.3917     493.0750   1425.31006     765.3917     493.0750
   1425.29480     766.0646     493.7505   1425.29480     766.0646     493.7505
   1425.27954     767.9869     495.0091   1425.27954     767.9869     495.0091
   1425.26428     769.0167     494.4130   1425.26428     769.0167     494.4130
   1425.24902     769.8860     496.1702   1425.24902     769.8860     496.1702
   1425.23376     769.3486     496.2075   1425.23376     769.3486     496.2075
   1425.21851     771.1564     497.3571   1425.21851     771.1564     497.3571
   1425.20325     772.8448     498.1309   1425.20325     772.8448     498.1309
   1425.18799     772.7480     497.4593   1425.18799     772.7480     497.4593
   1425.17273     774.2838     498.9376   1425.17273     774.2838     498.9376
   1425.15747     775.7438     498.6470   1425.15747     775.7438     498.6470
   1425.14221     775.8076     498.8202   1425.14221     775.8076     498.8202
   1425.12695     776.9468     499.5916   1425.12695     776.9468     499.5916
   1425.11169     779.3095     500.5889   1425.11169     779.3095     500.5889
   1425.09644     779.1871     500.7711   1425.09644     779.1871     500.7711
   1425.08118     778.8966     500.8984   1425.08118     778.8966     500.8984
   1425.06592     780.4778     500.9802   1425.06592     780.4778     500.9802
   1425.05066     780.0927     501.7790   1425.05066     780.0927     501.7790
   1425.03540     779.9567     502.0422   1425.03540     779.9567     502.0422
   1425.02014     781.5071     502.7456   1425.02014     781.5071     502.7456
   1425.00488     781.6742     502.7584   1425.00488     781.6742     502.7584
   1424.98962     782.1970     503.2794   1424.98962     782.1970     503.2794
   1424.97437     783.6148     503.2216   1424.97437     783.6148     503.2216
   1424.95911     782.2023     504.3698   1424.95911     782.2023     504.3698
   1424.94385     782.9833     503.7696   1424.94385     782.9833     503.7696
   1424.92859     784.0351     504.5012   1424.92859     784.0351     504.5012
   1424.91333     786.4653     504.1745   1424.91333     786.4653     504.1745
   1424.89807     784.5935     504.6115   1424.89807     784.5935     504.6115
   1424.88281     784.5526     505.9208   1424.88281     784.5526     505.9208
   1424.86755     786.4850     506.4619   1424.86755     786.4850     506.4619
   1424.85229     785.5983     506.6251   1424.85229     785.5983     506.6251
   1424.83704     785.4082     506.7433   1424.83704     785.4082     506.7433
   1424.82178     786.2301     506.5333   1424.82178     786.2301     506.5333
   1424.80652     785.5872     506.5818   1424.80652     785.5872     506.5818
   1424.79126     786.2859     507.7546   1424.79126     786.2859     507.7546
   1424.77600     786.2821     507.3083   1424.77600     786.2821     507.3083
   1424.76074     786.7173     508.0079   1424.76074     786.7173     508.0079
   1424.74548     788.0900     508.2170   1424.74548     788.0900     508.2170
   1424.73022     785.8226     508.1639   1424.73022     785.8226     508.1639
   1424.71497     785.3696     508.6394   1424.71497     785.3696     508.6394
   1424.69971     786.4052     509.0949   1424.69971     786.4052     509.0949
   1424.68445     787.1429     509.4708   1424.68445     787.1429     509.4708
   1424.66919     785.9895     509.6384   1424.66919     785.9895     509.6384
   1424.65393     786.0808     509.6521   1424.65393     786.0808     509.6521
   1424.63867     786.6495     509.7107   1424.63867     786.6495     509.7107
   1424.62341     787.4669     510.3500   1424.62341     787.4669     510.3500
   1424.60815     786.7784     510.0547   1424.60815     786.7784     510.0547
   1424.59290     786.5833     510.0486   1424.59290     786.5833     510.0486
   1424.57764     786.2430     510.7239   1424.57764     786.2430     510.7239
   1424.56238     784.6998     511.0967   1424.56238     784.6998     511.0967
   1424.54712     785.4839     510.8510   1424.54712     785.4839     510.8510
   1424.53186     786.2382     510.9962   1424.53186     786.2382     510.9962
   1424.51660     785.4053     511.2703   1424.51660     785.4053     511.2703
   1424.50134     782.5963     511.9826   1424.50134     782.5963     511.9826
   1424.48608     785.4143     511.2443   1424.48608     785.4143     511.2443
   1424.47083     784.1128     511.2306   1424.47083     784.1128     511.2306
   1424.45557     782.3885     511.1564   1424.45557     782.3885     511.1564
   1424.44031     782.8659     511.0196   1424.44031     782.8659     511.0196
   1424.42505     782.3453     511.9800   1424.42505     782.3453     511.9800
   1424.40979     781.6525     512.8621   1424.40979     781.6525     512.8621
   1424.39453     782.1934     512.4176   1424.39453     782.1934     512.4176
   1424.37927     780.8879     511.8712   1424.37927     780.8879     511.8712
   1424.36401     780.6354     512.2516   1424.36401     780.6354     512.2516
   1424.34875     780.3648     512.0635   1424.34875     780.3648     512.0635
   1424.33350     780.0110     513.0294   1424.33350     780.0110     513.0294
   1424.31824     780.0644     512.7065   1424.31824     780.0644     512.7065
   1424.30298     778.1366     512.3778   1424.30298     778.1366     512.3778
   1424.28772     777.8903     513.5370   1424.28772     777.8903     513.5370
   1424.27246     776.9591     513.2343   1424.27246     776.9591     513.2343
   1424.25720     777.1572     512.5098   1424.25720     777.1572     512.5098
   1424.24194     776.7447     513.8949   1424.24194     776.7447     513.8949
   1424.22668     775.7502     514.1406   1424.22668     775.7502     514.1406
   1424.21143     775.5829     513.3201   1424.21143     775.5829     513.3201
   1424.19617     774.5765     513.4026   1424.19617     774.5765     513.4026
   1424.18091     774.0573     513.4655   1424.18091     774.0573     513.4655
   1424.16565     773.3101     513.7233   1424.16565     773.3101     513.7233
   1424.15039     772.3010     513.5923   1424.15039     772.3010     513.5923
   1424.13513     772.0970     514.5338   1424.13513     772.0970     514.5338
   1424.11987     770.3674     513.2793   1424.11987     770.3674     513.2793
   1424.10461     770.7322     513.9746   1424.10461     770.7322     513.9746
   1424.08936     770.1039     513.4612   1424.08936     770.1039     513.4612
   1424.07410     768.2553     513.6357   1424.07410     768.2553     513.6357
   1424.05884     769.3685     513.2534   1424.05884     769.3685     513.2534
   1424.04358     767.9637     514.1050   1424.04358     767.9637     514.1050
   1424.02832     767.1003     513.9142   1424.02832     767.1003     513.9142
   1424.01306     766.5691     513.3719   1424.01306     766.5691     513.3719
   1423.99780     766.2624     513.7211   1423.99780     766.2624     513.7211
   1423.98254     765.2339     513.4401   1423.98254     765.2339     513.4401
   1423.96729     765.0707     513.7062   1423.96729     765.0707     513.7062
   1423.95203     763.9865     513.4153   1423.95203     763.9865     513.4153
   1423.93677     764.1214     513.2702   1423.93677     764.1214     513.2702
   1423.92151     762.7814     513.3468   1423.92151     762.7814     513.3468
   1423.90625     762.6956     512.4571   1423.90625     762.6956     512.4571
   1423.89099     761.1865     512.2706   1423.89099     761.1865     512.2706
   1423.87573     762.2761     512.7314   1423.87573     762.2761     512.7314
   1423.86047     760.7003     512.1984   1423.86047     760.7003     512.1984
   1423.84521     759.0523     512.6712   1423.84521     759.0523     512.6712
   1423.82996     759.3622     513.1161   1423.82996     759.3622     513.1161
   1423.81470     757.3000     512.6791   1423.81470     757.3000     512.6791
   1423.79944     757.8636     513.0039   1423.79944     757.8636     513.0039
   1423.78418     754.7399     511.9393   1423.78418     754.7399     511.9393
   1423.76892     755.0412     512.0487   1423.76892     755.0412     512.0487
   1423.75366     754.1966     511.6997   1423.75366     754.1966     511.6997
   1423.73840     754.4134     512.4937   1423.73840     754.4134     512.4937
   1423.72314     752.8882     512.7050   1423.72314     752.8882     512.7050
   1423.70789     753.1151     511.2536   1423.70789     753.1151     511.2536
   1423.69263     751.2781     511.5259   1423.69263     751.2781     511.5259
   1423.67737     751.7152     512.0144   1423.67737     751.7152     512.0144
   1423.66211     750.7260     511.2321   1423.66211     750.7260     511.2321
   1423.64685     749.6826     511.0386   1423.64685     749.6826     511.0386
   1423.63159     749.1490     511.2806   1423.63159     749.1490     511.2806
   1423.61633     746.9623     510.3349   1423.61633     746.9623     510.3349
   1423.60107     747.1413     510.9547   1423.60107     747.1413     510.9547
   1423.58582     746.3729     510.2676   1423.58582     746.3729     510.2676
   1423.57056     745.5137     510.0030   1423.57056     745.5137     510.0030
   1423.55530     746.3609     510.2231   1423.55530     746.3609     510.2231
   1423.54004     744.7145     508.8969   1423.54004     744.7145     508.8969
   1423.52478     742.7506     509.1160   1423.52478     742.7506     509.1160
   1423.50952     743.4177     509.6562   1423.50952     743.4177     509.6562
   1423.49426     742.7390     510.0143   1423.49426     742.7390     510.0143
   1423.47900     742.4971     509.6767   1423.47900     742.4971     509.6767
   1423.46375     741.5335     508.3405   1423.46375     741.5335     508.3405
   1423.44849     740.8263     509.2701   1423.44849     740.8263     509.2701
   1423.43323     740.4922     509.0760   1423.43323     740.4922     509.0760
   1423.41797     739.2353     507.9621   1423.41797     739.2353     507.9621
   1423.40271     738.0064     508.3529   1423.40271     738.0064     508.3529
   1423.38745     737.8047     506.8452   1423.38745     737.8047     506.8452
   1423.37219     737.9738     506.9274   1423.37219     737.9738     506.9274
   1423.35693     735.8162     506.5974   1423.35693     735.8162     506.5974
   1423.34167     736.7609     506.0937   1423.34167     736.7609     506.0937
   1423.32642     735.8083     505.4656   1423.32642     735.8083     505.4656
   1423.31116     734.0327     505.1187   1423.31116     734.0327     505.1187
   1423.29590     735.4355     505.5718   1423.29590     735.4355     505.5718
   1423.28064     734.5220     505.1526   1423.28064     734.5220     505.1526
   1423.26538     732.6213     504.6054   1423.26538     732.6213     504.6054
   1423.25012     732.1715     504.2583   1423.25012     732.1715     504.2583
   1423.23486     731.2272     503.5207   1423.23486     731.2272     503.5207
   1423.21960     731.1652     503.4980   1423.21960     731.1652     503.4980
   1423.20435     730.3007     502.8616   1423.20435     730.3007     502.8616
   1423.18909     729.9288     503.4521   1423.18909     729.9288     503.4521
   1423.17383     727.8770     502.5753   1423.17383     727.8770     502.5753
   1423.15857     728.5826     502.2757   1423.15857     728.5826     502.2757
   1423.14331     729.4221     501.9510   1423.14331     729.4221     501.9510
   1423.12805     727.5356     501.2992   1423.12805     727.5356     501.2992
   1423.11279     725.3727     500.5223   1423.11279     725.3727     500.5223
   1423.09753     725.6918     500.7910   1423.09753     725.6918     500.7910
   1423.08228     724.3038     499.0957   1423.08228     724.3038     499.0957
   1423.06702     725.1143     499.7332   1423.06702     725.1143     499.7332
   1423.05176     724.4484     498.5615   1423.05176     724.4484     498.5615
   1423.03650     724.3973     498.5632   1423.03650     724.3973     498.5632
   1423.02124     724.1439     498.2236   1423.02124     724.1439     498.2236
   1423.00598     723.9214     497.7764   1423.00598     723.9214     497.7764
   1422.99072     722.4132     496.9096   1422.99072     722.4132     496.9096
   1422.97546     721.3029     496.6705   1422.97546     721.3029     496.6705
   1422.96021     721.7354     496.5397   1422.96021     721.7354     496.5397
   1422.94495     721.2911     495.3348   1422.94495     721.2911     495.3348
   1422.92969     721.1145     495.3856   1422.92969     721.1145     495.3856
   1422.91443     719.7156     494.8107   1422.91443     719.7156     494.8107
   1422.89917     718.9374     493.9738   1422.89917     718.9374     493.9738
   1422.88391     719.1646     493.2308   1422.88391     719.1646     493.2308
   1422.86865     718.0392     492.8593   1422.86865     718.0392     492.8593
   1422.85339     719.6707     492.0864   1422.85339     719.6707     492.0864
   1422.83813     717.5718     492.1131   1422.83813     717.5718     492.1131
   1422.82288     718.4648     490.7323   1422.82288     718.4648     490.7323
   1422.80762     716.7114     490.5860   1422.80762     716.7114     490.5860
   1422.79236     716.6615     489.4620   1422.79236     716.6615     489.4620
   1422.77710     715.8190     488.8982   1422.77710     715.8190     488.8982
   1422.76184     716.1467     488.0426   1422.76184     716.1467     488.0426
   1422.74658     715.6852     488.0719   1422.74658     715.6852     488.0719
   1422.73132     715.7944     487.7838   1422.73132     715.7944     487.7838
   1422.71606     714.7104     486.2816   1422.71606     714.7104     486.2816
   1422.70081     713.9506     486.0334   1422.70081     713.9506     486.0334
   1422.68555     714.4278     485.4554   1422.68555     714.4278     485.4554
   1422.67029     713.6459     484.9970   1422.67029     713.6459     484.9970
   1422.65503     713.0214     484.0835   1422.65503     713.0214     484.0835
   1422.63977     713.2438     483.0959   1422.63977     713.2438     483.0959
   1422.62451     713.1556     482.4401   1422.62451     713.1556     482.4401
   1422.60925     711.5239     481.3217   1422.60925     711.5239     481.3217
   1422.59399     712.2939     481.2416   1422.59399     712.2939     481.2416
   1422.57874     711.3736     480.5377   1422.57874     711.3736     480.5377
   1422.56348     710.5728     479.7787   1422.56348     710.5728     479.7787
   1422.54822     712.1111     478.8564   1422.54822     712.1111     478.8564
   1422.53296     710.2650     479.0749   1422.53296     710.2650     479.0749
   1422.51770     710.5822     476.9409   1422.51770     710.5822     476.9409
   1422.50244     710.2157     477.1076   1422.50244     710.2157     477.1076
   1422.48718     709.7236     476.7318   1422.48718     709.7236     476.7318
   1422.47192     709.8277     475.3015   1422.47192     709.8277     475.3015
   1422.45667     709.9252     474.8474   1422.45667     709.9252     474.8474
   1422.44141     708.2372     474.1635   1422.44141     708.2372     474.1635
   1422.42615     708.8277     473.4815   1422.42615     708.8277     473.4815
   1422.41089     708.7731     472.5263   1422.41089     708.7731     472.5263
   1422.39563     708.5721     471.2351   1422.39563     708.5721     471.2351
   1422.38037     708.1811     471.1937   1422.38037     708.1811     471.1937
   1422.36511     706.7361     469.8601   1422.36511     706.7361     469.8601
   1422.34985     707.7499     469.6279   1422.34985     707.7499     469.6279
   1422.33459     707.0436     468.3297   1422.33459     707.0436     468.3297
   1422.31934     707.5478     467.9493   1422.31934     707.5478     467.9493
   1422.30408     706.5406     466.8092   1422.30408     706.5406     466.8092
   1422.28882     706.7827     465.5017   1422.28882     706.7827     465.5017
   1422.27356     704.9105     464.2601   1422.27356     704.9105     464.2601
   1422.25830     705.7758     463.8287   1422.25830     705.7758     463.8287
   1422.24304     706.0387     463.3577   1422.24304     706.0387     463.3577
   1422.22778     705.6581     462.7037   1422.22778     705.6581     462.7037
   1422.21252     706.1352     461.3671   1422.21252     706.1352     461.3671
   1422.19727     705.9283     460.3938   1422.19727     705.9283     460.3938
   1422.18201     705.5012     459.8494   1422.18201     705.5012     459.8494
   1422.16675     705.1207     458.4443   1422.16675     705.1207     458.4443
   1422.15149     704.9590     458.0423   1422.15149     704.9590     458.0423
   1422.13623     704.1641     456.9817   1422.13623     704.1641     456.9817
   1422.12097     704.5173     455.4853   1422.12097     704.5173     455.4853
   1422.10571     704.0885     455.6510   1422.10571     704.0885     455.6510
   1422.09045     703.9004     454.0718   1422.09045     703.9004     454.0718
   1422.07520     704.4167     454.3393   1422.07520     704.4167     454.3393
   1422.05994     703.7609     452.8037   1422.05994     703.7609     452.8037
   1422.04468     704.3651     452.1535   1422.04468     704.3651     452.1535
   1422.02942     703.1956     451.0771   1422.02942     703.1956     451.0771
   1422.01416     701.8519     450.1016   1422.01416     701.8519     450.1016
   1421.99890     705.8704     448.5887   1421.99890     705.8704     448.5887
   1421.98364     703.5933     448.0220   1421.98364     703.5933     448.0220
   1421.96838     702.0894     446.7712   1421.96838     702.0894     446.7712
   1421.95312     702.2917     445.9337   1421.95312     702.2917     445.9337
   1421.93787     702.3362     445.1466   1421.93787     702.3362     445.1466
   1421.92261     703.3207     443.7406   1421.92261     703.3207     443.7406
   1421.90735     702.4183     443.1625   1421.90735     702.4183     443.1625
   1421.89209     701.7778     442.2661   1421.89209     701.7778     442.2661
   1421.87683     701.5435     441.2024   1421.87683     701.5435     441.2024
   1421.86157     702.2398     440.9422   1421.86157     702.2398     440.9422
   1421.84631     702.1055     439.5998   1421.84631     702.1055     439.5998
   1421.83105     700.9147     438.0257   1421.83105     700.9147     438.0257
   1421.81580     701.0134     438.2234   1421.81580     701.0134     438.2234
   1421.80054     701.5970     437.0053   1421.80054     701.5970     437.0053
   1421.78528     700.4765     435.7711   1421.78528     700.4765     435.7711
   1421.77002     700.8521     435.5100   1421.77002     700.8521     435.5100
   1421.75476     700.6505     434.0028   1421.75476     700.6505     434.0028
   1421.73950     700.2852     432.8864   1421.73950     700.2852     432.8864
   1421.72424     699.2957     431.4831   1421.72424     699.2957     431.4831
   1421.70898     700.2227     431.7436   1421.70898     700.2227     431.7436
   1421.69373     699.3010     429.9720   1421.69373     699.3010     429.9720
   1421.67847     700.2905     428.9209   1421.67847     700.2905     428.9209
   1421.66321     699.7509     427.6309   1421.66321     699.7509     427.6309
   1421.64795     700.2198     427.0312   1421.64795     700.2198     427.0312
   1421.63269     699.2560     426.0031   1421.63269     699.2560     426.0031
   1421.61743     699.2795     425.1646   1421.61743     699.2795     425.1646
   1421.60217     697.7525     424.8637   1421.60217     697.7525     424.8637
   1421.58691     699.3740     422.8500   1421.58691     699.3740     422.8500
   1421.57166     697.9305     421.7743   1421.57166     697.9305     421.7743
   1421.55640     700.5670     421.0498   1421.55640     700.5670     421.0498
   1421.54114     698.7954     420.2318   1421.54114     698.7954     420.2318
   1421.52588     698.3950     419.5697   1421.52588     698.3950     419.5697
   1421.51062     698.3434     418.1553   1421.51062     698.3434     418.1553
   1421.49536     698.2695     417.3718   1421.49536     698.2695     417.3718
   1421.48010     698.6810     415.9196   1421.48010     698.6810     415.9196
   1421.46484     697.6331     415.6168   1421.46484     697.6331     415.6168
   1421.44958     697.8441     414.6771   1421.44958     697.8441     414.6771
   1421.43433     697.1861     413.0585   1421.43433     697.1861     413.0585
   1421.41907     698.0027     411.9241   1421.41907     698.0027     411.9241
   1421.40381     696.6450     411.1234   1421.40381     696.6450     411.1234
   1421.38855     696.8761     410.2418   1421.38855     696.8761     410.2418
   1421.37329     697.4172     409.1760   1421.37329     697.4172     409.1760
   1421.35803     696.4023     408.2567   1421.35803     696.4023     408.2567
   1421.34277     697.3970     407.1870   1421.34277     697.3970     407.1870
   1421.32751     696.5883     406.6936   1421.32751     696.5883     406.6936
   1421.31226     697.7876     405.7419   1421.31226     697.7876     405.7419
   1421.29700     695.3815     404.9817   1421.29700     695.3815     404.9817
   1421.28174     696.5634     403.3148   1421.28174     696.5634     403.3148
   1421.26648     695.6119     402.4205   1421.26648     695.6119     402.4205
   1421.25122     695.3062     401.7397   1421.25122     695.3062     401.7397
   1421.23596     696.5540     400.3490   1421.23596     696.5540     400.3490
   1421.22070     694.8262     400.3329   1421.22070     694.8262     400.3329
   1421.20544     694.4288     398.6563   1421.20544     694.4288     398.6563
   1421.19019     694.9604     398.0707   1421.19019     694.9604     398.0707
   1421.17493     695.1049     396.7253   1421.17493     695.1049     396.7253
   1421.15967     694.8531     395.1541   1421.15967     694.8531     395.1541
   1421.14441     695.5964     395.3918   1421.14441     695.5964     395.3918
   1421.12915     694.6256     393.6059   1421.12915     694.6256     393.6059
   1421.11389     695.1476     392.8088   1421.11389     695.1476     392.8088
   1421.09863     693.9108     391.9668   1421.09863     693.9108     391.9668
   1421.08337     694.7774     391.4071   1421.08337     694.7774     391.4071
   1421.06812     694.0254     390.0684   1421.06812     694.0254     390.0684
   1421.05286     693.7598     389.9652   1421.05286     693.7598     389.9652
   1421.03760     693.1358     389.2142   1421.03760     693.1358     389.2142
   1421.02234     693.3723     387.0755   1421.02234     693.3723     387.0755
   1421.00708     693.0536     386.6222   1421.00708     693.0536     386.6222
   1420.99182     692.7679     385.7026   1420.99182     692.7679     385.7026
   1420.97656     692.4456     384.4227   1420.97656     692.4456     384.4227
   1420.96130     694.1633     384.0747   1420.96130     694.1633     384.0747
   1420.94604     693.7012     383.6401   1420.94604     693.7012     383.6401
   1420.93079     694.1738     382.8322   1420.93079     694.1738     382.8322
   1420.91553     693.3636     382.4047   1420.91553     693.3636     382.4047
   1420.90027     694.0257     381.3159   1420.90027     694.0257     381.3159
   1420.88501     694.9734     380.8674   1420.88501     694.9734     380.8674
   1420.86975     694.9421     380.3409   1420.86975     694.9421     380.3409
   1420.85449     695.9871     380.3617   1420.85449     695.9871     380.3617
   1420.83923     697.3149     379.8730   1420.83923     697.3149     379.8730
   1420.82397     696.8483     378.4905   1420.82397     696.8483     378.4905
   1420.80872     698.6240     378.4570   1420.80872     698.6240     378.4570
   1420.79346     698.7153     378.3939   1420.79346     698.7153     378.3939
   1420.77820     699.2285     378.2044   1420.77820     699.2285     378.2044
   1420.76294     700.2378     377.8940   1420.76294     700.2378     377.8940
   1420.74768     701.8806     377.6785   1420.74768     701.8806     377.6785
   1420.73242     701.2523     377.2249   1420.73242     701.2523     377.2249
   1420.71716     702.0956     376.1586   1420.71716     702.0956     376.1586
   1420.70190     702.2478     376.6546   1420.70190     702.2478     376.6546
   1420.68665     703.2252     375.6041   1420.68665     703.2252     375.6041
   1420.67139     704.3702     375.6062   1420.67139     704.3702     375.6062
   1420.65613     703.9321     374.2289   1420.65613     703.9321     374.2289
   1420.64087     705.5300     373.5104   1420.64087     705.5300     373.5104
   1420.62561     703.7960     373.6687   1420.62561     703.7960     373.6687
   1420.61035     704.8922     372.7419   1420.61035     704.8922     372.7419
   1420.59509     706.2045     372.4129   1420.59509     706.2045     372.4129
   1420.57983     707.2463     372.5861   1420.57983     707.2463     372.5861
   1420.56458     707.6167     371.9908   1420.56458     707.6167     371.9908
   1420.54932     708.4296     371.8701   1420.54932     708.4296     371.8701
   1420.53406     709.4263     371.0110   1420.53406     709.4263     371.0110
   1420.51880     708.2864     370.3131   1420.51880     708.2864     370.3131
   1420.50354     707.6821     369.4319   1420.50354     707.6821     369.4319
   1420.48828     705.7927     368.5925   1420.48828     705.7927     368.5925
   1420.47302     705.8179     367.9526   1420.47302     705.8179     367.9526
   1420.45776     707.4139     367.4271   1420.45776     707.4139     367.4271
   1420.44250     707.3917     366.9380   1420.44250     707.3917     366.9380
   1420.42725     709.6408     367.4919   1420.42725     709.6408     367.4919
   1420.41199     712.2403     368.0472   1420.41199     712.2403     368.0472
   1420.39673     717.8870     369.9055   1420.39673     717.8870     369.9055
   1420.38147     727.2388     374.2611   1420.38147     727.2388     374.2611
   1420.36621     744.7654     382.0823   1420.36621     744.7654     382.0823
   1420.35095     777.4390     397.1785   1420.35095     777.4390     397.1785
   1420.33569     833.6912     424.1677   1420.33569     833.6912     424.1677
   1420.32043     937.1938     475.0705   1420.32043     937.1938     475.0705
   1420.30518    1114.4414     562.3448   1420.30518    1114.4414     562.3448
   1420.28992    1325.7742     664.2316   1420.28992    1325.7742     664.2316
   1420.27466    1678.8474     838.2531   1420.27466    1678.8474     838.2531
   1420.25940    2099.9526    1045.5370   1420.25940    2099.9526    1045.5370
   1420.24414    2346.8821    1166.7883   1420.24414    2346.8821    1166.7883
   1420.22888    2490.8096    1236.5256   1420.22888    2490.8096    1236.5256
   1420.21362    2419.5801    1198.1669   1420.21362    2419.5801    1198.1669
   1420.19836    2424.7778    1198.9435   1420.19836    2424.7778    1198.9435
   1420.18311    2297.3689    1134.3595   1420.18311    2297.3689    1134.3595
   1420.16785    2157.9597    1065.2589   1420.16785    2157.9597    1065.2589
   1420.15259    1984.9130     978.1522   1420.15259    1984.9130     978.1522
   1420.13733    1690.8491     834.5872   1420.13733    1690.8491     834.5872
   1420.12207    1375.0284     678.8568   1420.12207    1375.0284     678.8568
   1420.10681    1139.1992     563.7762   1420.10681    1139.1992     563.7762
   1420.09155     934.8769     463.7133   1420.09155     934.8769     463.7133
   1420.07629     812.4102     404.5876   1420.07629     812.4102     404.5876
   1420.06104     755.9158     376.1141   1420.06104     755.9158     376.1141
   1420.04578     726.9581     361.6314   1420.04578     726.9581     361.6314
   1420.03052     711.1861     354.3617   1420.03052     711.1861     354.3617
   1420.01526     703.6115     350.5396   1420.01526     703.6115     350.5396
   1420.00000     700.7436     347.9196   1420.00000     700.7436     347.9196
   1419.98474     697.8754     345.2997   1419.98474     697.8754     345.2997
   1419.96948     692.7525     342.8866   1419.96948     692.7525     342.8866
   1419.95422     690.1138     341.4506   1419.95422     690.1138     341.4506
   1419.93896     689.3909     341.3086   1419.93896     689.3909     341.3086
   1419.92371     686.9622     339.6224   1419.92371     686.9622     339.6224
   1419.90845     687.7944     339.0666   1419.90845     687.7944     339.0666
   1419.89319     686.6971     338.6831   1419.89319     686.6971     338.6831
   1419.87793     686.7902     338.0745   1419.87793     686.7902     338.0745
   1419.86267     684.2776     337.1793   1419.86267     684.2776     337.1793
   1419.84741     685.6271     337.2233   1419.84741     685.6271     337.2233
   1419.83215     684.9853     336.1826   1419.83215     684.9853     336.1826
   1419.81689     685.1485     336.1437   1419.81689     685.1485     336.1437
   1419.80164     684.7649     336.1039   1419.80164     684.7649     336.1039
   1419.78638     685.6476     335.6343   1419.78638     685.6476     335.6343
   1419.77112     685.7795     335.3105   1419.77112     685.7795     335.3105
   1419.75586     684.7234     335.0251   1419.75586     684.7234     335.0251
   1419.74060     685.5961     334.1949   1419.74060     685.5961     334.1949
   1419.72534     684.8090     334.3340   1419.72534     684.8090     334.3340
   1419.71008     685.0563     333.4875   1419.71008     685.0563     333.4875
   1419.69482     684.5201     333.5472   1419.69482     684.5201     333.5472
   1419.67957     685.6654     333.0952   1419.67957     685.6654     333.0952
   1419.66431     686.3012     332.5931   1419.66431     686.3012     332.5931
   1419.64905     685.7629     332.8916   1419.64905     685.7629     332.8916
   1419.63379     686.9179     332.6984   1419.63379     686.9179     332.6984
   1419.61853     686.0537     332.0729   1419.61853     686.0537     332.0729
   1419.60327     686.6833     332.1662   1419.60327     686.6833     332.1662
   1419.58801     686.3262     332.3169   1419.58801     686.3262     332.3169
   1419.57275     686.1789     332.2281   1419.57275     686.1789     332.2281
   1419.55750     685.6382     331.5978   1419.55750     685.6382     331.5978
   1419.54224     687.0701     331.7754   1419.54224     687.0701     331.7754
   1419.52698     686.6754     331.3167   1419.52698     686.6754     331.3167
   1419.51172     686.8102     331.1681   1419.51172     686.8102     331.1681
   1419.49646     686.5145     331.5781   1419.49646     686.5145     331.5781
   1419.48120     688.7535     331.1008   1419.48120     688.7535     331.1008
   1419.46594     687.9009     330.8477   1419.46594     687.9009     330.8477
   1419.45068     688.0922     330.7323   1419.45068     688.0922     330.7323
   1419.43542     688.8165     331.0753   1419.43542     688.8165     331.0753
   1419.42017     688.5818     330.8416   1419.42017     688.5818     330.8416
   1419.40491     689.2712     330.8309   1419.40491     689.2712     330.8309
   1419.38965     689.3434     330.8401   1419.38965     689.3434     330.8401
   1419.37439     689.6642     330.9581   1419.37439     689.6642     330.9581
   1419.35913     689.8821     331.0053   1419.35913     689.8821     331.0053
   1419.34387     690.0163     330.8797   1419.34387     690.0163     330.8797
   1419.32861     689.9109     331.4030   1419.32861     689.9109     331.4030
   1419.31335     691.3249     330.7643   1419.31335     691.3249     330.7643
   1419.29810     691.1274     331.0143   1419.29810     691.1274     331.0143
   1419.28284     691.6422     330.4803   1419.28284     691.6422     330.4803
   1419.26758     691.7219     331.0436   1419.26758     691.7219     331.0436
   1419.25232     690.7103     331.3847   1419.25232     690.7103     331.3847
   1419.23706     691.7083     330.7094   1419.23706     691.7083     330.7094
   1419.22180     692.9249     331.7249   1419.22180     692.9249     331.7249
   1419.20654     693.5594     331.2734   1419.20654     693.5594     331.2734
   1419.19128     693.8655     331.5164   1419.19128     693.8655     331.5164
   1419.17603     693.7580     331.6905   1419.17603     693.7580     331.6905
   1419.16077     694.8149     331.7307   1419.16077     694.8149     331.7307
   1419.14551     693.6268     331.7807   1419.14551     693.6268     331.7807
   1419.13025     695.5918     332.1144   1419.13025     695.5918     332.1144
   1419.11499     696.6196     332.4499   1419.11499     696.6196     332.4499
   1419.09973     694.7735     332.5146   1419.09973     694.7735     332.5146
   1419.08447     696.3737     332.5002   1419.08447     696.3737     332.5002
   1419.06921     697.5774     332.7474   1419.06921     697.5774     332.7474
   1419.05396     696.8746     333.0658   1419.05396     696.8746     333.0658
   1419.03870     696.6664     333.5240   1419.03870     696.6664     333.5240
   1419.02344     697.7131     333.2867   1419.02344     697.7131     333.2867
   1419.00818     698.0824     333.4114   1419.00818     698.0824     333.4114
   1418.99292     699.4000     334.0154   1418.99292     699.4000     334.0154
   1418.97766     698.5806     334.4743   1418.97766     698.5806     334.4743
   1418.96240     700.1275     334.3941   1418.96240     700.1275     334.3941
   1418.94714     700.1193     334.7121   1418.94714     700.1193     334.7121
   1418.93188     700.5034     334.9774   1418.93188     700.5034     334.9774
   1418.91663     700.6394     335.5650   1418.91663     700.6394     335.5650
   1418.90137     701.8635     335.7209   1418.90137     701.8635     335.7209
   1418.88611     701.2308     336.2455   1418.88611     701.2308     336.2455
   1418.87085     703.3879     336.1476   1418.87085     703.3879     336.1476
   1418.85559     703.3748     336.8583   1418.85559     703.3748     336.8583
   1418.84033     704.0619     336.8224   1418.84033     704.0619     336.8224
   1418.82507     703.9563     337.0735   1418.82507     703.9563     337.0735
   1418.80981     704.4680     337.2841   1418.80981     704.4680     337.2841
   1418.79456     706.3555     337.9763   1418.79456     706.3555     337.9763
   1418.77930     706.0143     338.1133   1418.77930     706.0143     338.1133
   1418.76404     705.4830     338.4798   1418.76404     705.4830     338.4798
   1418.74878     706.0985     339.3526   1418.74878     706.0985     339.3526
   1418.73352     708.2909     339.3874   1418.73352     708.2909     339.3874
   1418.71826     707.4382     339.8539   1418.71826     707.4382     339.8539
   1418.70300     708.9271     340.7236   1418.70300     708.9271     340.7236
   1418.68774     709.3323     341.9016   1418.68774     709.3323     341.9016
   1418.67249     709.8391     341.2309   1418.67249     709.8391     341.2309
   1418.65723     709.2932     341.7524   1418.65723     709.2932     341.7524
   1418.64197     711.1722     342.5752   1418.64197     711.1722     342.5752
   1418.62671     710.6010     342.9757   1418.62671     710.6010     342.9757
   1418.61145     711.0483     343.5617   1418.61145     711.0483     343.5617
   1418.59619     711.5750     344.5132   1418.59619     711.5750     344.5132
   1418.58093     712.1382     344.3611   1418.58093     712.1382     344.3611
   1418.56567     713.6358     345.1622   1418.56567     713.6358     345.1622
   1418.55042     713.6231     345.7242   1418.55042     713.6231     345.7242
   1418.53516     715.0541     346.2019   1418.53516     715.0541     346.2019
   1418.51990     715.7854     346.8380   1418.51990     715.7854     346.8380
   1418.50464     715.9824     347.0345   1418.50464     715.9824     347.0345
   1418.48938     718.0049     347.8756   1418.48938     718.0049     347.8756
   1418.47412     716.7402     348.6164   1418.47412     716.7402     348.6164
   1418.45886     717.5895     348.8671   1418.45886     717.5895     348.8671
   1418.44360     716.9825     349.3797   1418.44360     716.9825     349.3797
   1418.42834     718.7077     349.7894   1418.42834     718.7077     349.7894
   1418.41309     719.5468     351.2244   1418.41309     719.5468     351.2244
   1418.39783     721.4314     351.5359   1418.39783     721.4314     351.5359
   1418.38257     721.4546     352.2726   1418.38257     721.4546     352.2726
   1418.36731     721.9509     353.5096   1418.36731     721.9509     353.5096
   1418.35205     723.2434     353.8951   1418.35205     723.2434     353.8951
   1418.33679     722.9950     354.3336   1418.33679     722.9950     354.3336
   1418.32153     724.5866     355.2403   1418.32153     724.5866     355.2403
   1418.30627     723.6011     356.0737   1418.30627     723.6011     356.0737
   1418.29102     724.7581     356.5943   1418.29102     724.7581     356.5943
   1418.27576     725.0189     357.1580   1418.27576     725.0189     357.1580
   1418.26050     727.2927     358.0462   1418.26050     727.2927     358.0462
   1418.24524     726.8945     358.7774   1418.24524     726.8945     358.7774
   1418.22998     727.1427     359.8920   1418.22998     727.1427     359.8920
   1418.21472     728.8875     360.8341   1418.21472     728.8875     360.8341
   1418.19946     728.5533     361.0447   1418.19946     728.5533     361.0447
   1418.18420     730.5515     362.2006   1418.18420     730.5515     362.2006
   1418.16895     730.4592     362.3627   1418.16895     730.4592     362.3627
   1418.15369     731.6907     363.6961   1418.15369     731.6907     363.6961
   1418.13843     732.8551     364.0548   1418.13843     732.8551     364.0548
   1418.12317     732.8360     364.8470   1418.12317     732.8360     364.8470
   1418.10791     733.3215     365.3414   1418.10791     733.3215     365.3414
   1418.09265     734.3892     366.2900   1418.09265     734.3892     366.2900
   1418.07739     735.5192     367.6501   1418.07739     735.5192     367.6501
   1418.06213     736.0429     368.7769   1418.06213     736.0429     368.7769
   1418.04688     736.4852     369.3670   1418.04688     736.4852     369.3670
   1418.03162     736.5091     371.0009   1418.03162     736.5091     371.0009
   1418.01636     738.9871     371.4830   1418.01636     738.9871     371.4830
   1418.00110     738.9948     372.0309   1418.00110     738.9948     372.0309
   1417.98584     739.5294     373.2185   1417.98584     739.5294     373.2185
   1417.97058     741.0565     374.5641   1417.97058     741.0565     374.5641
   1417.95532     741.7097     375.1000   1417.95532     741.7097     375.1000
   1417.94006     742.6220     375.7701   1417.94006     742.6220     375.7701
   1417.92480     744.0912     376.5389   1417.92480     744.0912     376.5389
   1417.90955     743.7859     377.6147   1417.90955     743.7859     377.6147
   1417.89429     744.0583     378.7727   1417.89429     744.0583     378.7727
   1417.87903     747.0906     379.6718   1417.87903     747.0906     379.6718
   1417.86377     746.4221     380.3372   1417.86377     746.4221     380.3372
   1417.84851     746.9205     381.2759   1417.84851     746.9205     381.2759
   1417.83325     747.6714     382.5316   1417.83325     747.6714     382.5316
   1417.81799     748.4170     383.8446   1417.81799     748.4170     383.8446
   1417.80273     749.6431     384.2889   1417.80273     749.6431     384.2889
   1417.78748     750.9169     385.6584   1417.78748     750.9169     385.6584
   1417.77222     751.1257     387.0935   1417.77222     751.1257     387.0935
   1417.75696     751.4428     388.2155   1417.75696     751.4428     388.2155
   1417.74170     753.1808     388.2913   1417.74170     753.1808     388.2913
   1417.72644     754.4161     389.4715   1417.72644     754.4161     389.4715
   1417.71118     754.6750     390.8523   1417.71118     754.6750     390.8523
   1417.69592     755.1722     391.8970   1417.69592     755.1722     391.8970
   1417.68066     755.6138     393.5862   1417.68066     755.6138     393.5862
   1417.66541     757.8868     394.4397   1417.66541     757.8868     394.4397
   1417.65015     757.0400     395.0912   1417.65015     757.0400     395.0912
   1417.63489     758.7340     396.7678   1417.63489     758.7340     396.7678
   1417.61963     759.5915     396.8592   1417.61963     759.5915     396.8592
   1417.60437     759.3621     398.5643   1417.60437     759.3621     398.5643
   1417.58911     761.4065     400.0770   1417.58911     761.4065     400.0770
   1417.57385     762.1222     401.0189   1417.57385     762.1222     401.0189
   1417.55859     762.2540     401.9384   1417.55859     762.2540     401.9384
   1417.54333     763.3734     403.3229   1417.54333     763.3734     403.3229
   1417.52808     764.7480     403.9194   1417.52808     764.7480     403.9194
   1417.51282     763.6317     405.0131   1417.51282     763.6317     405.0131
   1417.49756     765.4279     406.3068   1417.49756     765.4279     406.3068
   1417.48230     765.8797     407.5018   1417.48230     765.8797     407.5018
   1417.46704     767.0580     408.8862   1417.46704     767.0580     408.8862
   1417.45178     766.4565     410.0362   1417.45178     766.4565     410.0362
   1417.43652     768.6223     410.9875   1417.43652     768.6223     410.9875
   1417.42126     770.7413     412.7224   1417.42126     770.7413     412.7224
   1417.40601     770.6311     412.6021   1417.40601     770.6311     412.6021
   1417.39075     771.4642     414.8480   1417.39075     771.4642     414.8480
   1417.37549     772.9628     415.7690   1417.37549     772.9628     415.7690
   1417.36023     772.2835     417.3034   1417.36023     772.2835     417.3034
   1417.34497     773.5187     418.6992   1417.34497     773.5187     418.6992
   1417.32971     775.3151     418.6059   1417.32971     775.3151     418.6059
   1417.31445     775.1924     420.0999   1417.31445     775.1924     420.0999
   1417.29919     776.3680     421.7693   1417.29919     776.3680     421.7693
   1417.28394     777.8851     423.1388   1417.28394     777.8851     423.1388
   1417.26868     777.5673     424.7513   1417.26868     777.5673     424.7513
   1417.25342     778.6337     424.9684   1417.25342     778.6337     424.9684
   1417.23816     778.8739     425.8463   1417.23816     778.8739     425.8463
   1417.22290     779.9957     428.0012   1417.22290     779.9957     428.0012
   1417.20764     781.6414     428.5125   1417.20764     781.6414     428.5125
   1417.19238     781.6333     430.1708   1417.19238     781.6333     430.1708
   1417.17712     780.6562     430.8728   1417.17712     780.6562     430.8728
   1417.16187     782.7707     432.6897   1417.16187     782.7707     432.6897
   1417.14661     785.2379     432.9078   1417.14661     785.2379     432.9078
   1417.13135     783.7576     434.1373   1417.13135     783.7576     434.1373
   1417.11609     784.0605     435.7501   1417.11609     784.0605     435.7501
   1417.10083     784.9447     436.1233   1417.10083     784.9447     436.1233
   1417.08557     786.5623     437.3332   1417.08557     786.5623     437.3332
   1417.07031     787.2350     438.9032   1417.07031     787.2350     438.9032
   1417.05505     787.7025     440.0433   1417.05505     787.7025     440.0433
   1417.03979     788.5189     441.1822   1417.03979     788.5189     441.1822
   1417.02454     788.9539     441.8547   1417.02454     788.9539     441.8547
   1417.00928     789.6195     443.9119   1417.00928     789.6195     443.9119
   1416.99402     790.1689     444.2390   1416.99402     790.1689     444.2390
   1416.97876     790.0007     445.3874   1416.97876     790.0007     445.3874
   1416.96350     791.7652     445.6627   1416.96350     791.7652     445.6627
   1416.94824     791.9812     447.5011   1416.94824     791.9812     447.5011
   1416.93298     792.5807     448.3258   1416.93298     792.5807     448.3258
   1416.91772     792.6165     449.2990   1416.91772     792.6165     449.2990
   1416.90247     793.6871     450.1766   1416.90247     793.6871     450.1766
   1416.88721     795.5536     452.2986   1416.88721     795.5536     452.2986
   1416.87195     796.0186     452.7811   1416.87195     796.0186     452.7811
   1416.85669     796.1843     453.4072   1416.85669     796.1843     453.4072
   1416.84143     796.3032     454.2915   1416.84143     796.3032     454.2915
   1416.82617     795.7924     455.2606   1416.82617     795.7924     455.2606
   1416.81091     796.4464     455.9307   1416.81091     796.4464     455.9307
   1416.79565     797.3488     456.9124   1416.79565     797.3488     456.9124
   1416.78040     796.3959     457.1872   1416.78040     796.3959     457.1872
   1416.76514     798.7629     458.6690   1416.76514     798.7629     458.6690
   1416.74988     797.4825     459.6573   1416.74988     797.4825     459.6573
   1416.73462     798.0040     460.6992   1416.73462     798.0040     460.6992
   1416.71936     798.3074     460.8655   1416.71936     798.3074     460.8655
   1416.70410     799.7560     461.8036   1416.70410     799.7560     461.8036
   1416.68884     800.3051     462.3082   1416.68884     800.3051     462.3082
   1416.67358     800.4650     463.2509   1416.67358     800.4650     463.2509
   1416.65833     799.1773     463.6414   1416.65833     799.1773     463.6414
   1416.64307     802.2560     464.8474   1416.64307     802.2560     464.8474
   1416.62781     801.0302     465.0833   1416.62781     801.0302     465.0833
   1416.61255     801.0151     465.2726   1416.61255     801.0151     465.2726
   1416.59729     802.9770     466.6788   1416.59729     802.9770     466.6788
   1416.58203     800.8168     467.2333   1416.58203     800.8168     467.2333
   1416.56677     801.8061     467.7707   1416.56677     801.8061     467.7707
   1416.55151     800.3525     468.0313   1416.55151     800.3525     468.0313
   1416.53625     802.4816     468.3651   1416.53625     802.4816     468.3651
   1416.52100     801.9559     469.2331   1416.52100     801.9559     469.2331
   1416.50574     802.8972     469.4063   1416.50574     802.8972     469.4063
   1416.49048     802.1377     469.6907   1416.49048     802.1377     469.6907
   1416.47522     802.4019     469.6776   1416.47522     802.4019     469.6776
   1416.45996     803.3655     470.1602   1416.45996     803.3655     470.1602
   1416.44470     803.1555     470.7636   1416.44470     803.1555     470.7636
   1416.42944     802.2697     471.1417   1416.42944     802.2697     471.1417
   1416.41418     802.0173     470.6176   1416.41418     802.0173     470.6176
   1416.39893     802.1810     472.0984   1416.39893     802.1810     472.0984
   1416.38367     801.2740     472.2197   1416.38367     801.2740     472.2197
   1416.36841     802.8281     472.6469   1416.36841     802.8281     472.6469
   1416.35315     801.3564     472.4181   1416.35315     801.3564     472.4181
   1416.33789     801.8328     472.8046   1416.33789     801.8328     472.8046
   1416.32263     803.3099     472.9393   1416.32263     803.3099     472.9393
   1416.30737     801.1186     472.3740   1416.30737     801.1186     472.3740
   1416.29211     801.5838     473.1679   1416.29211     801.5838     473.1679
   1416.27686     800.4580     473.6202   1416.27686     800.4580     473.6202
   1416.26160     801.3985     472.8305   1416.26160     801.3985     472.8305
   1416.24634     801.2379     473.5358   1416.24634     801.2379     473.5358
   1416.23108     800.0361     473.2376   1416.23108     800.0361     473.2376
   1416.21582     799.6852     473.7450   1416.21582     799.6852     473.7450
   1416.20056     800.1738     473.5502   1416.20056     800.1738     473.5502
   1416.18530     800.4373     474.2628   1416.18530     800.4373     474.2628
   1416.17004     800.4930     473.3721   1416.17004     800.4930     473.3721
   1416.15479     798.3920     473.3886   1416.15479     798.3920     473.3886
   1416.13953     799.1964     473.3572   1416.13953     799.1964     473.3572
   1416.12427     799.3928     473.2221   1416.12427     799.3928     473.2221
   1416.10901     797.8729     473.8291   1416.10901     797.8729     473.8291
   1416.09375     798.7094     473.2588   1416.09375     798.7094     473.2588
   1416.07849     797.6719     473.5662   1416.07849     797.6719     473.5662
   1416.06323     797.4127     472.1914   1416.06323     797.4127     472.1914
   1416.04797     795.8233     472.5998   1416.04797     795.8233     472.5998
   1416.03271     797.5169     472.5145   1416.03271     797.5169     472.5145
   1416.01746     795.9634     472.4242   1416.01746     795.9634     472.4242
   1416.00220     795.3195     472.0779   1416.00220     795.3195     472.0779
   1415.98694     795.9171     472.6450   1415.98694     795.9171     472.6450
   1415.97168     795.0573     471.4796   1415.97168     795.0573     471.4796
   1415.95642     794.0038     471.7927   1415.95642     794.0038     471.7927
   1415.94116     793.5184     470.8984   1415.94116     793.5184     470.8984
   1415.92590     793.0134     471.7861   1415.92590     793.0134     471.7861
   1415.91064     792.9005     471.0502   1415.91064     792.9005     471.0502
   1415.89539     791.5029     470.7495   1415.89539     791.5029     470.7495
   1415.88013     791.5790     470.6431   1415.88013     791.5790     470.6431
   1415.86487     790.6907     469.7449   1415.86487     790.6907     469.7449
   1415.84961     790.9329     470.0919   1415.84961     790.9329     470.0919
   1415.83435     789.8294     469.5850   1415.83435     789.8294     469.5850
   1415.81909     789.7376     469.7783   1415.81909     789.7376     469.7783
   1415.80383     788.6961     468.8558   1415.80383     788.6961     468.8558
   1415.78857     786.0562     469.0957   1415.78857     786.0562     469.0957
   1415.77332     787.6113     469.0789   1415.77332     787.6113     469.0789
   1415.75806     786.1854     468.4204   1415.75806     786.1854     468.4204
   1415.74280     786.1144     467.5239   1415.74280     786.1144     467.5239
   1415.72754     784.8075     467.3156   1415.72754     784.8075     467.3156
   1415.71228     785.3090     466.4164   1415.71228     785.3090     466.4164
   1415.69702     783.8801     466.8419   1415.69702     783.8801     466.8419
   1415.68176     783.5032     466.1097   1415.68176     783.5032     466.1097
   1415.66650     783.3112     465.9652   1415.66650     783.3112     465.9652
   1415.65125     782.0351     465.3826   1415.65125     782.0351     465.3826
   1415.63599     779.6514     464.5211   1415.63599     779.6514     464.5211
   1415.62073     779.4728     464.3546   1415.62073     779.4728     464.3546
   1415.60547     779.5467     463.5766   1415.60547     779.5467     463.5766
   1415.59021     778.0215     464.3438   1415.59021     778.0215     464.3438
   1415.57495     777.0800     463.4197   1415.57495     777.0800     463.4197
   1415.55969     776.4421     463.0241   1415.55969     776.4421     463.0241
   1415.54443     775.6132     462.2798   1415.54443     775.6132     462.2798
   1415.52917     774.9028     461.1071   1415.52917     774.9028     461.1071
   1415.51392     774.1596     461.1800   1415.51392     774.1596     461.1800
   1415.49866     772.8824     460.1693   1415.49866     772.8824     460.1693
   1415.48340     771.1536     459.9421   1415.48340     771.1536     459.9421
   1415.46814     770.7492     459.0977   1415.46814     770.7492     459.0977
   1415.45288     770.9869     459.2873   1415.45288     770.9869     459.2873
   1415.43762     769.3486     458.2217   1415.43762     769.3486     458.2217
   1415.42236     767.4688     457.4302   1415.42236     767.4688     457.4302
   1415.40710     767.2499     457.2451   1415.40710     767.2499     457.2451
   1415.39185     767.0944     456.2894   1415.39185     767.0944     456.2894
   1415.37659     764.3676     455.5221   1415.37659     764.3676     455.5221
   1415.36133     764.7901     454.4443   1415.36133     764.7901     454.4443
   1415.34607     762.6662     454.1800   1415.34607     762.6662     454.1800
   1415.33081     762.7187     453.8158   1415.33081     762.7187     453.8158
   1415.31555     760.1687     453.4233   1415.31555     760.1687     453.4233
   1415.30029     760.0082     452.0076   1415.30029     760.0082     452.0076
   1415.28503     759.1133     451.6009   1415.28503     759.1133     451.6009
   1415.26978     757.4665     450.6501   1415.26978     757.4665     450.6501
   1415.25452     756.8567     450.8924   1415.25452     756.8567     450.8924
   1415.23926     754.8921     449.4417   1415.23926     754.8921     449.4417
   1415.22400     754.1404     448.5663   1415.22400     754.1404     448.5663
   1415.20874     752.8178     448.2924   1415.20874     752.8178     448.2924
   1415.19348     750.8579     446.9986   1415.19348     750.8579     446.9986
   1415.17822     750.9744     446.8430   1415.17822     750.9744     446.8430
   1415.16296     749.1351     445.9925   1415.16296     749.1351     445.9925
   1415.14771     747.1085     444.7941   1415.14771     747.1085     444.7941
   1415.13245     745.6862     444.3177   1415.13245     745.6862     444.3177
   1415.11719     745.6112     443.2348   1415.11719     745.6112     443.2348
   1415.10193     743.2446     442.5490   1415.10193     743.2446     442.5490
   1415.08667     741.8578     441.7992   1415.08667     741.8578     441.7992
   1415.07141     741.9681     441.2254   1415.07141     741.9681     441.2254
   1415.05615     739.2612     440.1822   1415.05615     739.2612     440.1822
   1415.04089     736.9250     439.3407   1415.04089     736.9250     439.3407
   1415.02563     736.3943     438.8188   1415.02563     736.3943     438.8188
   1415.01038     734.0938     437.3351   1415.01038     734.0938     437.3351
   1414.99512     732.7428     436.7838   1414.99512     732.7428     436.7838
   1414.97986     731.4642     435.6422   1414.97986     731.4642     435.6422
   1414.96460     729.7141     434.7767   1414.96460     729.7141     434.7767
   1414.94934     729.1806     433.6569   1414.94934     729.1806     433.6569
   1414.93408     726.7257     433.0463   1414.93408     726.7257     433.0463
   1414.91882     726.0458     432.1997   1414.91882     726.0458     432.1997
   1414.90356     724.1713     430.7039   1414.90356     724.1713     430.7039
   1414.88831     721.8450     429.6788   1414.88831     721.8450     429.6788
   1414.87305     719.5607     428.9378   1414.87305     719.5607     428.9378
   1414.85779     720.1934     428.0453   1414.85779     720.1934     428.0453
   1414.84253     716.7592     427.1588   1414.84253     716.7592     427.1588
   1414.82727     715.2854     425.9714   1414.82727     715.2854     425.9714
   1414.81201     714.3679     424.9983   1414.81201     714.3679     424.9983
   1414.79675     712.6516     423.7295   1414.79675     712.6516     423.7295
   1414.78149     710.7000     422.4429   1414.78149     710.7000     422.4429
   1414.76624     708.5382     421.6989   1414.76624     708.5382     421.6989
   1414.75098     706.7749     420.2733   1414.75098     706.7749     420.2733
   1414.73572     704.8771     419.5617   1414.73572     704.8771     419.5617
   1414.72046     703.6058     418.2231   1414.72046     703.6058     418.2231
   1414.70520     700.7578     416.5416   1414.70520     700.7578     416.5416
   1414.68994     698.6866     416.6338   1414.68994     698.6866     416.6338
   1414.67468     697.8380     415.2643   1414.67468     697.8380     415.2643
   1414.65942     695.4366     413.1674   1414.65942     695.4366     413.1674
   1414.64417     693.1116     412.4740   1414.64417     693.1116     412.4740
   1414.62891     690.1213     411.3345   1414.62891     690.1213     411.3345
   1414.61365     689.0361     409.7378   1414.61365     689.0361     409.7378
   1414.59839     688.1017     408.6067   1414.59839     688.1017     408.6067
   1414.58313     684.7388     407.3947   1414.58313     684.7388     407.3947
   1414.56787     682.8716     407.0921   1414.56787     682.8716     407.0921
   1414.55261     680.8615     404.8340   1414.55261     680.8615     404.8340
   1414.53735     678.7018     403.7584   1414.53735     678.7018     403.7584
   1414.52209     675.8288     402.2494   1414.52209     675.8288     402.2494
   1414.50684     675.4316     401.3289   1414.50684     675.4316     401.3289
   1414.49158     673.7478     399.4586   1414.49158     673.7478     399.4586
   1414.47632     669.6566     398.1340   1414.47632     669.6566     398.1340
   1414.46106     667.4149     397.3905   1414.46106     667.4149     397.3905
   1414.44580     665.5963     395.4384   1414.44580     665.5963     395.4384
   1414.43054     662.8837     394.5002   1414.43054     662.8837     394.5002
   1414.41528     660.5938     393.2199   1414.41528     660.5938     393.2199
   1414.40002     658.4801     391.5833   1414.40002     658.4801     391.5833
   1414.38477     657.1997     390.4823   1414.38477     657.1997     390.4823
   1414.36951     654.1743     388.3142   1414.36951     654.1743     388.3142
   1414.35425     652.3139     387.6131   1414.35425     652.3139     387.6131
   1414.33899     649.7667     386.3095   1414.33899     649.7667     386.3095
   1414.32373     647.0103     384.9471   1414.32373     647.0103     384.9471
   1414.30847     644.2850     383.5789   1414.30847     644.2850     383.5789
   1414.29321     641.2455     381.3292   1414.29321     641.2455     381.3292
   1414.27795     640.1379     380.3844   1414.27795     640.1379     380.3844
   1414.26270     636.4986     379.1853   1414.26270     636.4986     379.1853
   1414.24744     634.4514     377.4258   1414.24744     634.4514     377.4258
   1414.23218     633.0317     376.8245   1414.23218     633.0317     376.8245
   1414.21692     629.3654     374.5082   1414.21692     629.3654     374.5082
   1414.20166     626.7222     373.2036   1414.20166     626.7222     373.2036
   1414.18640     623.8027     371.5728   1414.18640     623.8027     371.5728
   1414.17114     622.0344     370.7124   1414.17114     622.0344     370.7124
   1414.15588     618.6855     368.6791   1414.15588     618.6855     368.6791
   1414.14062     617.6105     367.6422   1414.14062     617.6105     367.6422
   1414.12537     613.1544     365.6581   1414.12537     613.1544     365.6581
   1414.11011     611.8420     364.5047   1414.11011     611.8420     364.5047
   1414.09485     608.9752     362.1242   1414.09485     608.9752     362.1242
   1414.07959     606.5282     361.6872   1414.07959     606.5282     361.6872
   1414.06433     603.4151     360.1475   1414.06433     603.4151     360.1475
   1414.04907     600.4890     358.4348   1414.04907     600.4890     358.4348
   1414.03381     597.1031     356.5950   1414.03381     597.1031     356.5950
   1414.01855     595.2560     355.5875   1414.01855     595.2560     355.5875
   1414.00330     592.1685     353.5103   1414.00330     592.1685     353.5103
   1413.98804     589.2648     351.5926   1413.98804     589.2648     351.5926
   1413.97278     587.8295     350.3267   1413.97278     587.8295     350.3267
   1413.95752     584.2787     348.9975   1413.95752     584.2787     348.9975
   1413.94226     580.6657     347.9804   1413.94226     580.6657     347.9804
   1413.92700     578.7438     345.7421   1413.92700     578.7438     345.7421
   1413.91174     575.7657     344.6866   1413.91174     575.7657     344.6866
   1413.89648     572.8489     342.5575   1413.89648     572.8489     342.5575
   1413.88123     570.1884     340.5651   1413.88123     570.1884     340.5651
   1413.86597     567.0833     339.9820   1413.86597     567.0833     339.9820
   1413.85071     563.7848     338.3153   1413.85071     563.7848     338.3153
   1413.83545     561.1984     336.5351   1413.83545     561.1984     336.5351
   1413.82019     558.5767     334.7962   1413.82019     558.5767     334.7962
   1413.80493     555.9622     333.0390   1413.80493     555.9622     333.0390
   1413.78967     552.7137     331.8671   1413.78967     552.7137     331.8671
   1413.77441     549.9621     330.1402   1413.77441     549.9621     330.1402
   1413.75916     547.6212     328.9594   1413.75916     547.6212     328.9594
   1413.74390     544.8792     327.2187   1413.74390     544.8792     327.2187
   1413.72864     540.3954     325.9010   1413.72864     540.3954     325.9010
   1413.71338     538.6096     324.0843   1413.71338     538.6096     324.0843
   1413.69812     535.8175     322.8072   1413.69812     535.8175     322.8072
   1413.68286     532.2886     320.9995   1413.68286     532.2886     320.9995
   1413.66760     529.9853     319.9743   1413.66760     529.9853     319.9743
   1413.65234     526.1524     318.2705   1413.65234     526.1524     318.2705
   1413.63708     524.2716     315.8568   1413.63708     524.2716     315.8568
   1413.62183     520.7543     315.1856   1413.62183     520.7543     315.1856
   1413.60657     518.4211     313.3408   1413.60657     518.4211     313.3408
   1413.59131     515.4391     311.9878   1413.59131     515.4391     311.9878
   1413.57605     512.1236     310.0539   1413.57605     512.1236     310.0539
   1413.56079     508.9196     309.1347   1413.56079     508.9196     309.1347
   1413.54553     507.2785     308.0390   1413.54553     507.2785     308.0390
   1413.53027     504.2653     306.1068   1413.53027     504.2653     306.1068
   1413.51501     500.2013     304.7520   1413.51501     500.2013     304.7520
   1413.49976     498.1827     303.1718   1413.49976     498.1827     303.1718
   1413.48450     495.9740     302.0808   1413.48450     495.9740     302.0808
   1413.46924     492.4364     300.5767   1413.46924     492.4364     300.5767
   1413.45398     489.6481     298.8962   1413.45398     489.6481     298.8962
   1413.43872     487.4048     297.5176   1413.43872     487.4048     297.5176
   1413.42346     483.7399     296.2537   1413.42346     483.7399     296.2537
   1413.40820     481.2248     294.8675   1413.40820     481.2248     294.8675
   1413.39294     478.5130     293.6097   1413.39294     478.5130     293.6097
   1413.37769     476.2048     292.1248   1413.37769     476.2048     292.1248
   1413.36243     473.2461     290.5293   1413.36243     473.2461     290.5293
   1413.34717     470.2316     289.2527   1413.34717     470.2316     289.2527
   1413.33191     467.6887     288.4701   1413.33191     467.6887     288.4701
   1413.31665     465.4556     286.4676   1413.31665     465.4556     286.4676
   1413.30139     462.2375     285.3502   1413.30139     462.2375     285.3502
   1413.28613     459.7727     284.0254   1413.28613     459.7727     284.0254
   1413.27087     457.3822     282.3766   1413.27087     457.3822     282.3766
   1413.25562     454.8522     281.4070   1413.25562     454.8522     281.4070
   1413.24036     451.5692     280.3203   1413.24036     451.5692     280.3203
   1413.22510     449.0383     279.0121   1413.22510     449.0383     279.0121
   1413.20984     446.7599     278.3600   1413.20984     446.7599     278.3600
   1413.19458     444.5553     276.9543   1413.19458     444.5553     276.9543
   1413.17932     441.6811     275.7127   1413.17932     441.6811     275.7127
   1413.16406     439.9589     274.9702   1413.16406     439.9589     274.9702
   1413.14880     436.3475     273.3572   1413.14880     436.3475     273.3572
   1413.13354     434.8558     272.3180   1413.13354     434.8558     272.3180
   1413.11829     431.7166     271.6750   1413.11829     431.7166     271.6750
   1413.10303     429.7514     270.0914   1413.10303     429.7514     270.0914
   1413.08777     427.5472     269.1436   1413.08777     427.5472     269.1436
   1413.07251     424.5773     268.1626   1413.07251     424.5773     268.1626
   1413.05725     423.0800     267.3997   1413.05725     423.0800     267.3997
   1413.04199     419.4921     266.2506   1413.04199     419.4921     266.2506
   1413.02673     418.5449     265.3975   1413.02673     418.5449     265.3975
   1413.01147     415.4514     264.2786   1413.01147     415.4514     264.2786
   1412.99622     413.8883     263.6143   1412.99622     413.8883     263.6143
   1412.98096     411.4660     262.4678   1412.98096     411.4660     262.4678
   1412.96570     410.3287     261.6223   1412.96570     410.3287     261.6223
   1412.95044     408.0817     261.4108   1412.95044     408.0817     261.4108
   1412.93518     405.5598     260.2271   1412.93518     405.5598     260.2271
   1412.91992     403.5917     259.5412   1412.91992     403.5917     259.5412
   1412.90466     401.4250     258.5395   1412.90466     401.4250     258.5395
   1412.88940     399.6418     258.3008   1412.88940     399.6418     258.3008
   1412.87415     397.9350     257.6016   1412.87415     397.9350     257.6016
   1412.85889     396.3343     256.7664   1412.85889     396.3343     256.7664
   1412.84363     395.0589     256.3143   1412.84363     395.0589     256.3143
   1412.82837     392.7441     255.9811   1412.82837     392.7441     255.9811
   1412.81311     391.2483     255.0476   1412.81311     391.2483     255.0476
   1412.79785     389.8602     254.6264   1412.79785     389.8602     254.6264
   1412.78259     387.8872     253.9709   1412.78259     387.8872     253.9709
   1412.76733     386.6474     253.5786   1412.76733     386.6474     253.5786
   1412.75208     385.1190     253.3387   1412.75208     385.1190     253.3387
   1412.73682     383.7291     252.8795   1412.73682     383.7291     252.8795
   1412.72156     381.9025     252.3374   1412.72156     381.9025     252.3374
   1412.70630     380.4432     252.1612   1412.70630     380.4432     252.1612
   1412.69104     379.3209     251.8215   1412.69104     379.3209     251.8215
   1412.67578     378.5692     251.6865   1412.67578     378.5692     251.6865
   1412.66052     376.7194     251.7656   1412.66052     376.7194     251.7656
   1412.64526     375.4028     251.0799   1412.64526     375.4028     251.0799
   1412.63000     374.1918     250.8992   1412.63000     374.1918     250.8992
   1412.61475     373.5211     251.3313   1412.61475     373.5211     251.3313
   1412.59949     372.5009     251.0992   1412.59949     372.5009     251.0992
   1412.58423     371.5092     251.1410   1412.58423     371.5092     251.1410
   1412.56897     370.6774     250.6651   1412.56897     370.6774     250.6651
   1412.55371     370.0921     250.8212   1412.55371     370.0921     250.8212
   1412.53845     368.3804     250.6970   1412.53845     368.3804     250.6970
   1412.52319     367.8012     251.0097   1412.52319     367.8012     251.0097
   1412.50793     367.8055     251.2391   1412.50793     367.8055     251.2391
   1412.49268     367.0337     251.4365   1412.49268     367.0337     251.4365
   1412.47742     366.2452     251.7033   1412.47742     366.2452     251.7033
   1412.46216     365.4661     251.5061   1412.46216     365.4661     251.5061
   1412.44690     365.3064     251.7516   1412.44690     365.3064     251.7516
   1412.43164     365.1205     252.2643   1412.43164     365.1205     252.2643
   1412.41638     364.4862     252.6170   1412.41638     364.4862     252.6170
   1412.40112     364.0342     253.1017   1412.40112     364.0342     253.1017
   1412.38586     363.8486     253.3068   1412.38586     363.8486     253.3068
   1412.37061     363.2265     254.1561   1412.37061     363.2265     254.1561
   1412.35535     363.0267     254.2067   1412.35535     363.0267     254.2067
   1412.34009     362.8194     254.8779   1412.34009     362.8194     254.8779
   1412.32483     363.7400     255.7990   1412.32483     363.7400     255.7990
   1412.30957     362.8208     255.5346   1412.30957     362.8208     255.5346
   1412.29431     362.7165     256.4421   1412.29431     362.7165     256.4421
   1412.27905     362.9393     257.5455   1412.27905     362.9393     257.5455
   1412.26379     363.3554     257.9120   1412.26379     363.3554     257.9120
   1412.24854     363.4318     258.7186   1412.24854     363.4318     258.7186
   1412.23328     363.8574     259.3408   1412.23328     363.8574     259.3408
   1412.21802     364.5306     260.2805   1412.21802     364.5306     260.2805
   1412.20276     364.3110     261.0654   1412.20276     364.3110     261.0654