#     FILENAME=!Skynet_57528_lach-hhg-150_20494_20974.cyb.fits
#     BASENAME=Skynet_57528_lach-hhg-150_20494_20974
#     SRC_NAME=lach-hhg-150
#     OBSERVER=hhgmadison16_9500
#     DATE_OBS=2016-05-20T17:37:38.680
#        OBSID=20494
#      SCANNUM=20974
#          MJD=57528.7355
#          UTC=63542
#     SCANTYPE=track
#     DATAMODE=HIRES
#     TUNEFREQ=1420.0000
# Actual_FREQ1=1420.0000
# Actual_FREQ2=1420.0000
#    LO1Tuning=6870.000
#     RFFILTER=1355_1435
#        OBSBW=-15.6250
#        NCHAN=1024 
#        FOCUS=37.0929
#           RA=04:04:27.88
#          DEC=52:25:13.88
#      RA(hrs)=4.074400
#     DEC(deg)=52.420500
#    AZIM(deg)=354.632
#    ELEV(deg)=75.831
#     IFattens=10.00, 9.00
#      WARNING=None
#    TCAL_XL1=7.9635
#    TCAL_YR1=9.1340
#    TCAL_XL2=7.9635
#    TCAL_YR2=9.1340
#     TRX_XL1=11.7060
#     TRX_YR1=11.7060
#     TRX_XL2=11.7060
#     TRX_YR2=11.7060
#        TAVE=1.0000
#Freq1(MHz)          XL1          YR1  Freq2(MHz)          XL2          YR2 

   1427.81250     372.5084     330.0585   1427.81250     372.5084     330.0585
   1427.79724     373.7181     332.2925   1427.79724     373.7181     332.2925
   1427.78198     374.0794     333.0222   1427.78198     374.0794     333.0222
   1427.76672     375.4244     334.9165   1427.76672     375.4244     334.9165
   1427.75146     375.9236     335.8302   1427.75146     375.9236     335.8302
   1427.73621     377.2504     337.8330   1427.73621     377.2504     337.8330
   1427.72095     378.0001     338.8660   1427.72095     378.0001     338.8660
   1427.70569     378.4779     339.7646   1427.70569     378.4779     339.7646
   1427.69043     379.6936     342.3524   1427.69043     379.6936     342.3524
   1427.67517     380.7863     344.0865   1427.67517     380.7863     344.0865
   1427.65991     381.7831     345.6310   1427.65991     381.7831     345.6310
   1427.64465     382.8465     346.8156   1427.64465     382.8465     346.8156
   1427.62939     384.2513     348.7733   1427.62939     384.2513     348.7733
   1427.61414     385.7711     350.6012   1427.61414     385.7711     350.6012
   1427.59888     386.7734     351.9784   1427.59888     386.7734     351.9784
   1427.58362     387.8712     354.2077   1427.58362     387.8712     354.2077
   1427.56836     389.2605     355.7380   1427.56836     389.2605     355.7380
   1427.55310     391.0599     357.7885   1427.55310     391.0599     357.7885
   1427.53784     392.8450     360.2274   1427.53784     392.8450     360.2274
   1427.52258     394.0644     361.7681   1427.52258     394.0644     361.7681
   1427.50732     395.8132     363.2885   1427.50732     395.8132     363.2885
   1427.49207     397.3121     365.5121   1427.49207     397.3121     365.5121
   1427.47681     399.1462     367.4529   1427.47681     399.1462     367.4529
   1427.46155     401.5435     369.6219   1427.46155     401.5435     369.6219
   1427.44629     402.6976     371.7583   1427.44629     402.6976     371.7583
   1427.43103     405.3046     373.3383   1427.43103     405.3046     373.3383
   1427.41577     406.1924     375.7715   1427.41577     406.1924     375.7715
   1427.40051     408.8569     377.5271   1427.40051     408.8569     377.5271
   1427.38525     410.3446     380.2665   1427.38525     410.3446     380.2665
   1427.37000     412.6623     381.6452   1427.37000     412.6623     381.6452
   1427.35474     414.5503     383.9975   1427.35474     414.5503     383.9975
   1427.33948     415.8646     386.0881   1427.33948     415.8646     386.0881
   1427.32422     418.9955     388.3937   1427.32422     418.9955     388.3937
   1427.30896     421.0859     390.4483   1427.30896     421.0859     390.4483
   1427.29370     422.5847     392.8290   1427.29370     422.5847     392.8290
   1427.27844     424.5840     394.7466   1427.27844     424.5840     394.7466
   1427.26318     427.8785     397.4112   1427.26318     427.8785     397.4112
   1427.24792     430.0777     398.7803   1427.24792     430.0777     398.7803
   1427.23267     432.8936     401.1073   1427.23267     432.8936     401.1073
   1427.21741     434.8459     403.9200   1427.21741     434.8459     403.9200
   1427.20215     437.4143     405.3850   1427.20215     437.4143     405.3850
   1427.18689     439.8037     408.5680   1427.18689     439.8037     408.5680
   1427.17163     441.7691     410.7235   1427.17163     441.7691     410.7235
   1427.15637     443.6856     412.4127   1427.15637     443.6856     412.4127
   1427.14111     447.2953     415.1206   1427.14111     447.2953     415.1206
   1427.12585     449.3324     416.0375   1427.12585     449.3324     416.0375
   1427.11060     452.0132     419.1912   1427.11060     452.0132     419.1912
   1427.09534     455.1207     421.6083   1427.09534     455.1207     421.6083
   1427.08008     457.7186     424.0241   1427.08008     457.7186     424.0241
   1427.06482     460.0361     426.2699   1427.06482     460.0361     426.2699
   1427.04956     463.1117     428.0829   1427.04956     463.1117     428.0829
   1427.03430     465.6403     430.7524   1427.03430     465.6403     430.7524
   1427.01904     467.8989     433.0630   1427.01904     467.8989     433.0630
   1427.00378     471.7704     435.0191   1427.00378     471.7704     435.0191
   1426.98853     474.2924     437.3232   1426.98853     474.2924     437.3232
   1426.97327     476.9261     440.4622   1426.97327     476.9261     440.4622
   1426.95801     479.3091     442.0652   1426.95801     479.3091     442.0652
   1426.94275     483.1426     444.4861   1426.94275     483.1426     444.4861
   1426.92749     485.7735     446.1667   1426.92749     485.7735     446.1667
   1426.91223     488.2009     449.2669   1426.91223     488.2009     449.2669
   1426.89697     490.3337     450.7903   1426.89697     490.3337     450.7903
   1426.88171     494.3703     452.8207   1426.88171     494.3703     452.8207
   1426.86646     496.2540     455.2210   1426.86646     496.2540     455.2210
   1426.85120     500.0272     458.0110   1426.85120     500.0272     458.0110
   1426.83594     503.3698     459.0251   1426.83594     503.3698     459.0251
   1426.82068     506.2983     461.4601   1426.82068     506.2983     461.4601
   1426.80542     509.0988     463.5377   1426.80542     509.0988     463.5377
   1426.79016     511.5879     465.8468   1426.79016     511.5879     465.8468
   1426.77490     514.6958     468.6590   1426.77490     514.6958     468.6590
   1426.75964     518.5849     470.4962   1426.75964     518.5849     470.4962
   1426.74438     520.9194     473.3419   1426.74438     520.9194     473.3419
   1426.72913     524.2030     474.6736   1426.72913     524.2030     474.6736
   1426.71387     527.7001     476.3222   1426.71387     527.7001     476.3222
   1426.69861     529.9034     477.9901   1426.69861     529.9034     477.9901
   1426.68335     533.9962     480.3745   1426.68335     533.9962     480.3745
   1426.66809     537.0306     483.0906   1426.66809     537.0306     483.0906
   1426.65283     539.9300     484.9692   1426.65283     539.9300     484.9692
   1426.63757     544.3058     488.5064   1426.63757     544.3058     488.5064
   1426.62231     551.7614     499.2470   1426.62231     551.7614     499.2470
   1426.60706     550.0737     492.5416   1426.60706     550.0737     492.5416
   1426.59180     552.7301     493.2536   1426.59180     552.7301     493.2536
   1426.57654     556.2097     494.9796   1426.57654     556.2097     494.9796
   1426.56128     559.4290     496.5568   1426.56128     559.4290     496.5568
   1426.54602     561.9429     498.8929   1426.54602     561.9429     498.8929
   1426.53076     564.9811     500.7303   1426.53076     564.9811     500.7303
   1426.51550     568.3676     502.1807   1426.51550     568.3676     502.1807
   1426.50024     571.7276     504.6456   1426.50024     571.7276     504.6456
   1426.48499     575.1573     506.6409   1426.48499     575.1573     506.6409
   1426.46973     577.3436     508.7471   1426.46973     577.3436     508.7471
   1426.45447     580.4743     509.8351   1426.45447     580.4743     509.8351
   1426.43921     583.2214     512.3011   1426.43921     583.2214     512.3011
   1426.42395     585.6143     514.3647   1426.42395     585.6143     514.3647
   1426.40869     590.0308     516.1699   1426.40869     590.0308     516.1699
   1426.39343     592.8768     517.4946   1426.39343     592.8768     517.4946
   1426.37817     595.7556     518.8455   1426.37817     595.7556     518.8455
   1426.36292     598.2505     521.2101   1426.36292     598.2505     521.2101
   1426.34766     600.9753     523.1358   1426.34766     600.9753     523.1358
   1426.33240     605.0446     524.0118   1426.33240     605.0446     524.0118
   1426.31714     608.2883     525.9748   1426.31714     608.2883     525.9748
   1426.30188     611.2411     526.9776   1426.30188     611.2411     526.9776
   1426.28662     612.6866     529.1345   1426.28662     612.6866     529.1345
   1426.27136     615.5833     530.0333   1426.27136     615.5833     530.0333
   1426.25610     620.1241     531.9611   1426.25610     620.1241     531.9611
   1426.24084     622.1193     534.5851   1426.24084     622.1193     534.5851
   1426.22559     624.2157     534.7267   1426.22559     624.2157     534.7267
   1426.21033     626.9357     536.9776   1426.21033     626.9357     536.9776
   1426.19507     631.5059     538.4627   1426.19507     631.5059     538.4627
   1426.17981     634.3199     539.6897   1426.17981     634.3199     539.6897
   1426.16455     637.2376     541.7334   1426.16455     637.2376     541.7334
   1426.14929     638.3587     542.0369   1426.14929     638.3587     542.0369
   1426.13403     641.5087     544.4084   1426.13403     641.5087     544.4084
   1426.11877     644.9497     545.8888   1426.11877     644.9497     545.8888
   1426.10352     647.2940     547.4083   1426.10352     647.2940     547.4083
   1426.08826     650.1996     548.5364   1426.08826     650.1996     548.5364
   1426.07300     653.2590     550.2495   1426.07300     653.2590     550.2495
   1426.05774     655.6614     551.5580   1426.05774     655.6614     551.5580
   1426.04248     658.7207     552.4406   1426.04248     658.7207     552.4406
   1426.02722     659.7018     554.4818   1426.02722     659.7018     554.4818
   1426.01196     662.7051     554.5314   1426.01196     662.7051     554.5314
   1425.99670     664.6481     555.1215   1425.99670     664.6481     555.1215
   1425.98145     667.1605     557.1976   1425.98145     667.1605     557.1976
   1425.96619     671.1927     558.2717   1425.96619     671.1927     558.2717
   1425.95093     673.6326     559.7073   1425.95093     673.6326     559.7073
   1425.93567     675.6646     560.6572   1425.93567     675.6646     560.6572
   1425.92041     678.4955     563.5549   1425.92041     678.4955     563.5549
   1425.90515     679.4880     563.0183   1425.90515     679.4880     563.0183
   1425.88989     682.1724     565.0825   1425.88989     682.1724     565.0825
   1425.87463     685.4861     565.8605   1425.87463     685.4861     565.8605
   1425.85938     687.4941     566.5175   1425.85938     687.4941     566.5175
   1425.84412     689.7952     568.3809   1425.84412     689.7952     568.3809
   1425.82886     691.6547     569.3745   1425.82886     691.6547     569.3745
   1425.81360     694.4142     569.7437   1425.81360     694.4142     569.7437
   1425.79834     696.4670     570.9865   1425.79834     696.4670     570.9865
   1425.78308     698.7108     572.4424   1425.78308     698.7108     572.4424
   1425.76782     700.2898     573.4009   1425.76782     700.2898     573.4009
   1425.75256     702.7960     574.2690   1425.75256     702.7960     574.2690
   1425.73730     704.2655     575.3942   1425.73730     704.2655     575.3942
   1425.72205     706.9415     574.7378   1425.72205     706.9415     574.7378
   1425.70679     709.5062     576.5175   1425.70679     709.5062     576.5175
   1425.69153     710.7025     576.8333   1425.69153     710.7025     576.8333
   1425.67627     712.9554     577.5488   1425.67627     712.9554     577.5488
   1425.66101     714.4556     578.7987   1425.66101     714.4556     578.7987
   1425.64575     715.5857     580.2216   1425.64575     715.5857     580.2216
   1425.63049     718.9402     581.4688   1425.63049     718.9402     581.4688
   1425.61523     719.6379     581.2666   1425.61523     719.6379     581.2666
   1425.59998     720.8963     582.1527   1425.59998     720.8963     582.1527
   1425.58472     723.7158     582.4300   1425.58472     723.7158     582.4300
   1425.56946     724.6740     582.6177   1425.56946     724.6740     582.6177
   1425.55420     726.2971     585.4446   1425.55420     726.2971     585.4446
   1425.53894     728.4526     585.3467   1425.53894     728.4526     585.3467
   1425.52368     729.3214     585.5222   1425.52368     729.3214     585.5222
   1425.50842     731.4484     586.5117   1425.50842     731.4484     586.5117
   1425.49316     732.8945     586.4128   1425.49316     732.8945     586.4128
   1425.47791     734.2804     588.4290   1425.47791     734.2804     588.4290
   1425.46265     736.2011     587.6728   1425.46265     736.2011     587.6728
   1425.44739     736.0911     588.8548   1425.44739     736.0911     588.8548
   1425.43213     739.3599     589.4689   1425.43213     739.3599     589.4689
   1425.41687     740.4347     591.5901   1425.41687     740.4347     591.5901
   1425.40161     742.6072     590.0313   1425.40161     742.6072     590.0313
   1425.38635     742.6470     591.0354   1425.38635     742.6470     591.0354
   1425.37109     743.3407     591.8252   1425.37109     743.3407     591.8252
   1425.35583     744.9915     592.3871   1425.35583     744.9915     592.3871
   1425.34058     746.5286     593.6119   1425.34058     746.5286     593.6119
   1425.32532     746.2659     592.2086   1425.32532     746.2659     592.2086
   1425.31006     748.7800     593.4863   1425.31006     748.7800     593.4863
   1425.29480     749.8570     594.3350   1425.29480     749.8570     594.3350
   1425.27954     750.8262     594.8211   1425.27954     750.8262     594.8211
   1425.26428     750.7430     594.8368   1425.26428     750.7430     594.8368
   1425.24902     752.3082     595.8001   1425.24902     752.3082     595.8001
   1425.23376     754.0456     595.8527   1425.23376     754.0456     595.8527
   1425.21851     753.7927     596.0435   1425.21851     753.7927     596.0435
   1425.20325     755.7451     595.3965   1425.20325     755.7451     595.3965
   1425.18799     755.9168     596.6251   1425.18799     755.9168     596.6251
   1425.17273     756.4175     596.5316   1425.17273     756.4175     596.5316
   1425.15747     757.7557     597.0508   1425.15747     757.7557     597.0508
   1425.14221     759.3916     598.7704   1425.14221     759.3916     598.7704
   1425.12695     760.2450     598.0593   1425.12695     760.2450     598.0593
   1425.11169     759.9357     598.3953   1425.11169     759.9357     598.3953
   1425.09644     762.1945     598.1919   1425.09644     762.1945     598.1919
   1425.08118     762.4333     598.2767   1425.08118     762.4333     598.2767
   1425.06592     762.8061     599.3246   1425.06592     762.8061     599.3246
   1425.05066     762.3660     598.6591   1425.05066     762.3660     598.6591
   1425.03540     763.6857     599.7276   1425.03540     763.6857     599.7276
   1425.02014     764.8864     599.1541   1425.02014     764.8864     599.1541
   1425.00488     764.4113     599.2072   1425.00488     764.4113     599.2072
   1424.98962     765.7318     600.1292   1424.98962     765.7318     600.1292
   1424.97437     765.4004     600.4537   1424.97437     765.4004     600.4537
   1424.95911     765.7157     600.4666   1424.95911     765.7157     600.4666
   1424.94385     766.8383     601.3221   1424.94385     766.8383     601.3221
   1424.92859     766.9721     601.7263   1424.92859     766.9721     601.7263
   1424.91333     768.4832     600.9025   1424.91333     768.4832     600.9025
   1424.89807     766.3448     600.8278   1424.89807     766.3448     600.8278
   1424.88281     768.1329     601.7032   1424.88281     768.1329     601.7032
   1424.86755     768.9522     601.0576   1424.86755     768.9522     601.0576
   1424.85229     767.6721     601.1473   1424.85229     767.6721     601.1473
   1424.83704     767.8120     602.1165   1424.83704     767.8120     602.1165
   1424.82178     768.2938     602.0697   1424.82178     768.2938     602.0697
   1424.80652     768.3779     601.6107   1424.80652     768.3779     601.6107
   1424.79126     770.4504     602.3677   1424.79126     770.4504     602.3677
   1424.77600     769.2723     601.5997   1424.77600     769.2723     601.5997
   1424.76074     769.1717     601.2978   1424.76074     769.1717     601.2978
   1424.74548     768.7784     601.8195   1424.74548     768.7784     601.8195
   1424.73022     769.1978     602.8533   1424.73022     769.1978     602.8533
   1424.71497     769.1414     602.7366   1424.71497     769.1414     602.7366
   1424.69971     771.0607     601.6017   1424.69971     771.0607     601.6017
   1424.68445     769.5114     602.3785   1424.68445     769.5114     602.3785
   1424.66919     769.0807     601.6008   1424.66919     769.0807     601.6008
   1424.65393     772.3514     602.3557   1424.65393     772.3514     602.3557
   1424.63867     770.7224     601.7434   1424.63867     770.7224     601.7434
   1424.62341     770.0642     601.0207   1424.62341     770.0642     601.0207
   1424.60815     769.7498     601.7448   1424.60815     769.7498     601.7448
   1424.59290     769.1703     600.5613   1424.59290     769.1703     600.5613
   1424.57764     769.2491     601.9564   1424.57764     769.2491     601.9564
   1424.56238     768.9968     601.1208   1424.56238     768.9968     601.1208
   1424.54712     769.9664     601.9326   1424.54712     769.9664     601.9326
   1424.53186     768.8298     602.4428   1424.53186     768.8298     602.4428
   1424.51660     768.1971     600.5873   1424.51660     768.1971     600.5873
   1424.50134     769.6733     600.7862   1424.50134     769.6733     600.7862
   1424.48608     768.5767     601.4807   1424.48608     768.5767     601.4807
   1424.47083     768.5836     600.3414   1424.47083     768.5836     600.3414
   1424.45557     768.4097     600.8665   1424.45557     768.4097     600.8665
   1424.44031     768.5623     601.4410   1424.44031     768.5623     601.4410
   1424.42505     767.1111     600.3947   1424.42505     767.1111     600.3947
   1424.40979     767.9601     600.2170   1424.40979     767.9601     600.2170
   1424.39453     767.2383     600.6775   1424.39453     767.2383     600.6775
   1424.37927     767.3613     600.3441   1424.37927     767.3613     600.3441
   1424.36401     765.2845     600.1061   1424.36401     765.2845     600.1061
   1424.34875     766.2839     600.0533   1424.34875     766.2839     600.0533
   1424.33350     764.9504     600.2903   1424.33350     764.9504     600.2903
   1424.31824     766.5621     599.6390   1424.31824     766.5621     599.6390
   1424.30298     764.3229     599.7296   1424.30298     764.3229     599.7296
   1424.28772     764.3512     600.0862   1424.28772     764.3512     600.0862
   1424.27246     764.9346     598.7116   1424.27246     764.9346     598.7116
   1424.25720     762.5996     599.3918   1424.25720     762.5996     599.3918
   1424.24194     763.9531     598.6270   1424.24194     763.9531     598.6270
   1424.22668     762.8845     599.2249   1424.22668     762.8845     599.2249
   1424.21143     762.5412     597.1673   1424.21143     762.5412     597.1673
   1424.19617     762.4490     597.8120   1424.19617     762.4490     597.8120
   1424.18091     762.5782     597.2516   1424.18091     762.5782     597.2516
   1424.16565     761.7238     596.9913   1424.16565     761.7238     596.9913
   1424.15039     762.1917     598.0067   1424.15039     762.1917     598.0067
   1424.13513     761.1234     596.8649   1424.13513     761.1234     596.8649
   1424.11987     761.7793     597.0504   1424.11987     761.7793     597.0504
   1424.10461     759.2510     597.0836   1424.10461     759.2510     597.0836
   1424.08936     759.7952     596.8900   1424.08936     759.7952     596.8900
   1424.07410     758.0843     595.6627   1424.07410     758.0843     595.6627
   1424.05884     757.5068     596.4073   1424.05884     757.5068     596.4073
   1424.04358     758.8550     594.0402   1424.04358     758.8550     594.0402
   1424.02832     756.7897     595.6841   1424.02832     756.7897     595.6841
   1424.01306     757.3492     595.2666   1424.01306     757.3492     595.2666
   1423.99780     755.7525     594.0358   1423.99780     755.7525     594.0358
   1423.98254     757.5654     594.3719   1423.98254     757.5654     594.3719
   1423.96729     756.2109     594.5845   1423.96729     756.2109     594.5845
   1423.95203     755.6337     593.6784   1423.95203     755.6337     593.6784
   1423.93677     753.1018     593.6949   1423.93677     753.1018     593.6949
   1423.92151     754.4893     592.3503   1423.92151     754.4893     592.3503
   1423.90625     753.2754     593.7050   1423.90625     753.2754     593.7050
   1423.89099     752.3407     592.7042   1423.89099     752.3407     592.7042
   1423.87573     753.3551     591.3734   1423.87573     753.3551     591.3734
   1423.86047     750.5306     592.0720   1423.86047     750.5306     592.0720
   1423.84521     751.1106     592.4066   1423.84521     751.1106     592.4066
   1423.82996     750.4351     591.1356   1423.82996     750.4351     591.1356
   1423.81470     750.8773     591.6488   1423.81470     750.8773     591.6488
   1423.79944     749.8712     590.1513   1423.79944     749.8712     590.1513
   1423.78418     748.7916     589.5808   1423.78418     748.7916     589.5808
   1423.76892     748.4866     589.9825   1423.76892     748.4866     589.9825
   1423.75366     747.7377     590.2169   1423.75366     747.7377     590.2169
   1423.73840     747.1313     588.4675   1423.73840     747.1313     588.4675
   1423.72314     746.8279     588.4794   1423.72314     746.8279     588.4794
   1423.70789     746.3613     588.2801   1423.70789     746.3613     588.2801
   1423.69263     745.5776     588.6361   1423.69263     745.5776     588.6361
   1423.67737     744.7836     587.0677   1423.67737     744.7836     587.0677
   1423.66211     744.4771     586.0393   1423.66211     744.4771     586.0393
   1423.64685     745.2596     586.0462   1423.64685     745.2596     586.0462
   1423.63159     744.2811     585.6954   1423.63159     744.2811     585.6954
   1423.61633     742.8444     585.8128   1423.61633     742.8444     585.8128
   1423.60107     741.9978     585.2806   1423.60107     741.9978     585.2806
   1423.58582     742.7059     584.9904   1423.58582     742.7059     584.9904
   1423.57056     741.4570     584.4859   1423.57056     741.4570     584.4859
   1423.55530     740.8376     584.5399   1423.55530     740.8376     584.5399
   1423.54004     740.5436     583.5873   1423.54004     740.5436     583.5873
   1423.52478     738.4675     581.8619   1423.52478     738.4675     581.8619
   1423.50952     738.9919     583.5822   1423.50952     738.9919     583.5822
   1423.49426     740.2379     581.7667   1423.49426     740.2379     581.7667
   1423.47900     738.8455     581.4732   1423.47900     738.8455     581.4732
   1423.46375     737.5933     581.0276   1423.46375     737.5933     581.0276
   1423.44849     738.2582     580.6605   1423.44849     738.2582     580.6605
   1423.43323     737.1186     580.7633   1423.43323     737.1186     580.7633
   1423.41797     735.7165     580.3638   1423.41797     735.7165     580.3638
   1423.40271     736.4458     579.1266   1423.40271     736.4458     579.1266
   1423.38745     735.4724     579.1273   1423.38745     735.4724     579.1273
   1423.37219     733.7267     578.7916   1423.37219     733.7267     578.7916
   1423.35693     734.4482     576.6885   1423.35693     734.4482     576.6885
   1423.34167     733.9030     577.4680   1423.34167     733.9030     577.4680
   1423.32642     733.4911     577.0743   1423.32642     733.4911     577.0743
   1423.31116     733.6926     576.2183   1423.31116     733.6926     576.2183
   1423.29590     732.6579     574.8881   1423.29590     732.6579     574.8881
   1423.28064     731.5720     574.6818   1423.28064     731.5720     574.6818
   1423.26538     731.9934     574.4597   1423.26538     731.9934     574.4597
   1423.25012     730.9276     573.3889   1423.25012     730.9276     573.3889
   1423.23486     731.9548     572.8751   1423.23486     731.9548     572.8751
   1423.21960     729.6878     572.6643   1423.21960     729.6878     572.6643
   1423.20435     728.9670     571.7092   1423.20435     728.9670     571.7092
   1423.18909     728.6652     571.5432   1423.18909     728.6652     571.5432
   1423.17383     728.3066     570.0056   1423.17383     728.3066     570.0056
   1423.15857     728.8323     570.1940   1423.15857     728.8323     570.1940
   1423.14331     727.7535     569.9297   1423.14331     727.7535     569.9297
   1423.12805     727.0057     568.9843   1423.12805     727.0057     568.9843
   1423.11279     726.8620     567.9352   1423.11279     726.8620     567.9352
   1423.09753     725.6630     567.8851   1423.09753     725.6630     567.8851
   1423.08228     725.3803     567.2812   1423.08228     725.3803     567.2812
   1423.06702     726.3034     566.7527   1423.06702     726.3034     566.7527
   1423.05176     724.1956     565.8325   1423.05176     724.1956     565.8325
   1423.03650     724.8755     564.5877   1423.03650     724.8755     564.5877
   1423.02124     725.0341     563.5388   1423.02124     725.0341     563.5388
   1423.00598     723.6440     563.9222   1423.00598     723.6440     563.9222
   1422.99072     724.0927     564.1720   1422.99072     724.0927     564.1720
   1422.97546     723.5647     562.0577   1422.97546     723.5647     562.0577
   1422.96021     722.7529     562.4830   1422.96021     722.7529     562.4830
   1422.94495     722.5654     561.8604   1422.94495     722.5654     561.8604
   1422.92969     721.8503     560.7291   1422.92969     721.8503     560.7291
   1422.91443     722.4595     559.5639   1422.91443     722.4595     559.5639
   1422.89917     721.5093     559.4028   1422.89917     721.5093     559.4028
   1422.88391     721.7836     558.4944   1422.88391     721.7836     558.4944
   1422.86865     719.9008     557.5290   1422.86865     719.9008     557.5290
   1422.85339     720.7218     557.0411   1422.85339     720.7218     557.0411
   1422.83813     719.8747     556.7415   1422.83813     719.8747     556.7415
   1422.82288     719.7867     555.1693   1422.82288     719.7867     555.1693
   1422.80762     719.4999     553.6343   1422.80762     719.4999     553.6343
   1422.79236     717.9742     553.7933   1422.79236     717.9742     553.7933
   1422.77710     718.4174     553.4438   1422.77710     718.4174     553.4438
   1422.76184     719.3068     553.8629   1422.76184     719.3068     553.8629
   1422.74658     718.0401     551.1855   1422.74658     718.0401     551.1855
   1422.73132     716.8052     551.6546   1422.73132     716.8052     551.6546
   1422.71606     717.4778     550.7382   1422.71606     717.4778     550.7382
   1422.70081     717.6140     549.6891   1422.70081     717.6140     549.6891
   1422.68555     718.7283     548.4943   1422.68555     718.7283     548.4943
   1422.67029     716.6998     548.4144   1422.67029     716.6998     548.4144
   1422.65503     716.9013     547.2179   1422.65503     716.9013     547.2179
   1422.63977     715.5788     545.1721   1422.63977     715.5788     545.1721
   1422.62451     716.7553     545.4378   1422.62451     716.7553     545.4378
   1422.60925     714.6660     544.8788   1422.60925     714.6660     544.8788
   1422.59399     714.8377     544.2996   1422.59399     714.8377     544.2996
   1422.57874     716.1215     543.2823   1422.57874     716.1215     543.2823
   1422.56348     713.8739     542.0942   1422.56348     713.8739     542.0942
   1422.54822     715.0907     541.9036   1422.54822     715.0907     541.9036
   1422.53296     715.8247     541.3483   1422.53296     715.8247     541.3483
   1422.51770     713.0501     539.7297   1422.51770     713.0501     539.7297
   1422.50244     715.0797     539.0964   1422.50244     715.0797     539.0964
   1422.48718     713.2260     538.4807   1422.48718     713.2260     538.4807
   1422.47192     713.6042     536.7917   1422.47192     713.6042     536.7917
   1422.45667     713.4638     536.8115   1422.45667     713.4638     536.8115
   1422.44141     713.7241     534.5988   1422.44141     713.7241     534.5988
   1422.42615     713.5724     536.1339   1422.42615     713.5724     536.1339
   1422.41089     712.8798     534.5004   1422.41089     712.8798     534.5004
   1422.39563     711.3540     533.7809   1422.39563     711.3540     533.7809
   1422.38037     711.9298     532.0704   1422.38037     711.9298     532.0704
   1422.36511     710.9386     531.4799   1422.36511     710.9386     531.4799
   1422.34985     711.3455     530.3923   1422.34985     711.3455     530.3923
   1422.33459     711.8873     529.8579   1422.33459     711.8873     529.8579
   1422.31934     710.7212     529.1544   1422.31934     710.7212     529.1544
   1422.30408     710.6421     526.7753   1422.30408     710.6421     526.7753
   1422.28882     711.2782     527.1717   1422.28882     711.2782     527.1717
   1422.27356     711.2404     526.4888   1422.27356     711.2404     526.4888
   1422.25830     710.5864     525.3483   1422.25830     710.5864     525.3483
   1422.24304     711.1049     525.2827   1422.24304     711.1049     525.2827
   1422.22778     710.9240     523.6520   1422.22778     710.9240     523.6520
   1422.21252     709.6725     522.8864   1422.21252     709.6725     522.8864
   1422.19727     708.2552     520.9849   1422.19727     708.2552     520.9849
   1422.18201     710.1143     520.7402   1422.18201     710.1143     520.7402
   1422.16675     709.2949     519.4026   1422.16675     709.2949     519.4026
   1422.15149     708.9769     518.2709   1422.15149     708.9769     518.2709
   1422.13623     709.2234     517.6920   1422.13623     709.2234     517.6920
   1422.12097     708.7169     516.3784   1422.12097     708.7169     516.3784
   1422.10571     709.9927     515.4689   1422.10571     709.9927     515.4689
   1422.09045     708.9576     514.7499   1422.09045     708.9576     514.7499
   1422.07520     708.8508     513.8283   1422.07520     708.8508     513.8283
   1422.05994     709.1430     512.4879   1422.05994     709.1430     512.4879
   1422.04468     707.7319     512.4340   1422.04468     707.7319     512.4340
   1422.02942     707.6633     511.1148   1422.02942     707.6633     511.1148
   1422.01416     707.6286     510.5795   1422.01416     707.6286     510.5795
   1421.99890     708.5009     509.1054   1421.99890     708.5009     509.1054
   1421.98364     706.7008     508.0922   1421.98364     706.7008     508.0922
   1421.96838     707.0594     506.5787   1421.96838     707.0594     506.5787
   1421.95312     708.4633     506.0938   1421.95312     708.4633     506.0938
   1421.93787     706.7931     504.7929   1421.93787     706.7931     504.7929
   1421.92261     706.8840     504.4803   1421.92261     706.8840     504.4803
   1421.90735     707.8624     502.5615   1421.90735     707.8624     502.5615
   1421.89209     706.3701     501.2150   1421.89209     706.3701     501.2150
   1421.87683     706.8135     501.0448   1421.87683     706.8135     501.0448
   1421.86157     707.1251     499.5503   1421.86157     707.1251     499.5503
   1421.84631     707.3796     499.1715   1421.84631     707.3796     499.1715
   1421.83105     706.9857     497.7432   1421.83105     706.9857     497.7432
   1421.81580     707.4205     497.0308   1421.81580     707.4205     497.0308
   1421.80054     706.4611     495.6001   1421.80054     706.4611     495.6001
   1421.78528     705.4749     495.8132   1421.78528     705.4749     495.8132
   1421.77002     706.0455     493.9889   1421.77002     706.0455     493.9889
   1421.75476     705.6213     493.0616   1421.75476     705.6213     493.0616
   1421.73950     706.3122     491.9076   1421.73950     706.3122     491.9076
   1421.72424     704.5428     490.1170   1421.72424     704.5428     490.1170
   1421.70898     706.0468     490.2115   1421.70898     706.0468     490.2115
   1421.69373     706.5653     488.3860   1421.69373     706.5653     488.3860
   1421.67847     705.5503     488.0320   1421.67847     705.5503     488.0320
   1421.66321     704.3336     486.9916   1421.66321     704.3336     486.9916
   1421.64795     704.7213     485.8084   1421.64795     704.7213     485.8084
   1421.63269     705.4713     485.1858   1421.63269     705.4713     485.1858
   1421.61743     705.3141     484.0890   1421.61743     705.3141     484.0890
   1421.60217     705.1999     483.5111   1421.60217     705.1999     483.5111
   1421.58691     705.3005     482.2522   1421.58691     705.3005     482.2522
   1421.57166     704.7179     480.1581   1421.57166     704.7179     480.1581
   1421.55640     705.3215     479.4087   1421.55640     705.3215     479.4087
   1421.54114     704.9149     478.7971   1421.54114     704.9149     478.7971
   1421.52588     703.2156     477.5049   1421.52588     703.2156     477.5049
   1421.51062     703.9103     476.1069   1421.51062     703.9103     476.1069
   1421.49536     705.0124     475.5424   1421.49536     705.0124     475.5424
   1421.48010     703.4872     474.2407   1421.48010     703.4872     474.2407
   1421.46484     704.1697     472.3594   1421.46484     704.1697     472.3594
   1421.44958     703.6805     473.1205   1421.44958     703.6805     473.1205
   1421.43433     703.1126     471.7645   1421.43433     703.1126     471.7645
   1421.41907     701.9053     470.7427   1421.41907     701.9053     470.7427
   1421.40381     703.5866     470.3695   1421.40381     703.5866     470.3695
   1421.38855     702.2239     468.7047   1421.38855     702.2239     468.7047
   1421.37329     702.7736     467.4290   1421.37329     702.7736     467.4290
   1421.35803     703.8288     466.1210   1421.35803     703.8288     466.1210
   1421.34277     703.0950     465.6531   1421.34277     703.0950     465.6531
   1421.32751     702.6263     464.0365   1421.32751     702.6263     464.0365
   1421.31226     701.8384     463.8097   1421.31226     701.8384     463.8097
   1421.29700     702.3029     461.6246   1421.29700     702.3029     461.6246
   1421.28174     701.8528     460.2890   1421.28174     701.8528     460.2890
   1421.26648     701.2711     459.4978   1421.26648     701.2711     459.4978
   1421.25122     701.8195     459.2762   1421.25122     701.8195     459.2762
   1421.23596     701.6454     458.6294   1421.23596     701.6454     458.6294
   1421.22070     701.5161     456.9737   1421.22070     701.5161     456.9737
   1421.20544     702.8740     456.4018   1421.20544     702.8740     456.4018
   1421.19019     700.2862     455.0194   1421.19019     700.2862     455.0194
   1421.17493     701.0996     453.9962   1421.17493     701.0996     453.9962
   1421.15967     700.4370     453.5336   1421.15967     700.4370     453.5336
   1421.14441     700.4036     452.5646   1421.14441     700.4036     452.5646
   1421.12915     700.9474     450.9313   1421.12915     700.9474     450.9313
   1421.11389     700.7134     450.1065   1421.11389     700.7134     450.1065
   1421.09863     699.5583     449.5285   1421.09863     699.5583     449.5285
   1421.08337     701.4754     449.0621   1421.08337     701.4754     449.0621
   1421.06812     700.0432     448.2862   1421.06812     700.0432     448.2862
   1421.05286     701.9545     447.2696   1421.05286     701.9545     447.2696
   1421.03760     701.8472     446.6642   1421.03760     701.8472     446.6642
   1421.02234     704.1843     446.2386   1421.02234     704.1843     446.2386
   1421.00708     703.7787     445.6505   1421.00708     703.7787     445.6505
   1420.99182     704.0602     445.1057   1420.99182     704.0602     445.1057
   1420.97656     704.5767     445.6038   1420.97656     704.5767     445.6038
   1420.96130     707.0264     444.4439   1420.96130     707.0264     444.4439
   1420.94604     706.8477     444.2736   1420.94604     706.8477     444.2736
   1420.93079     707.5657     443.9701   1420.93079     707.5657     443.9701
   1420.91553     707.2636     442.3936   1420.91553     707.2636     442.3936
   1420.90027     706.6904     441.5765   1420.90027     706.6904     441.5765
   1420.88501     706.0027     441.2940   1420.88501     706.0027     441.2940
   1420.86975     707.4081     439.8566   1420.86975     707.4081     439.8566
   1420.85449     709.0496     440.0550   1420.85449     709.0496     440.0550
   1420.83923     711.3814     440.0884   1420.83923     711.3814     440.0884
   1420.82397     715.5591     443.2842   1420.82397     715.5591     443.2842
   1420.80872     723.7768     445.9518   1420.80872     723.7768     445.9518
   1420.79346     738.7706     454.1555   1420.79346     738.7706     454.1555
   1420.77820     756.2947     464.6732   1420.77820     756.2947     464.6732
   1420.76294     781.4053     477.5744   1420.76294     781.4053     477.5744
   1420.74768     810.1900     494.0080   1420.74768     810.1900     494.0080
   1420.73242     841.8210     513.0576   1420.73242     841.8210     513.0576
   1420.71716     884.1124     537.0925   1420.71716     884.1124     537.0925
   1420.70190     985.9515     596.0808   1420.70190     985.9515     596.0808
   1420.68665    1107.3097     667.2987   1420.68665    1107.3097     667.2987
   1420.67139    1198.7180     718.2560   1420.67139    1198.7180     718.2560
   1420.65613    1531.3834     913.2071   1420.65613    1531.3834     913.2071
   1420.64087    1898.0789    1129.9474   1420.64087    1898.0789    1129.9474
   1420.62561    1895.0715    1126.9968   1420.62561    1895.0715    1126.9968
   1420.61035    1733.4357    1028.3011   1420.61035    1733.4357    1028.3011
   1420.59509    1901.4730    1125.2468   1420.59509    1901.4730    1125.2468
   1420.57983    2042.2457    1204.9421   1420.57983    2042.2457    1204.9421
   1420.56458    2155.7695    1268.1174   1420.56458    2155.7695    1268.1174
   1420.54932    2361.7629    1390.2174   1420.54932    2361.7629    1390.2174
   1420.53406    2581.4583    1513.6157   1420.53406    2581.4583    1513.6157
   1420.51880    2487.1086    1455.7650   1420.51880    2487.1086    1455.7650
   1420.50354    1919.9436    1125.1602   1420.50354    1919.9436    1125.1602
   1420.48828    1462.6158     858.2316   1420.48828    1462.6158     858.2316
   1420.47302    1255.3506     736.0502   1420.47302    1255.3506     736.0502
   1420.45776    1242.4900     728.5923   1420.45776    1242.4900     728.5923
   1420.44250    1370.2390     800.8072   1420.44250    1370.2390     800.8072
   1420.42725    1640.3306     952.8885   1420.42725    1640.3306     952.8885
   1420.41199    1812.9868    1051.0149   1420.41199    1812.9868    1051.0149
   1420.39673    1802.7748    1044.3831   1420.39673    1802.7748    1044.3831
   1420.38147    1654.0436     955.4260   1420.38147    1654.0436     955.4260
   1420.36621    1440.0549     833.4980   1420.36621    1440.0549     833.4980
   1420.35095    1315.8511     760.6824   1420.35095    1315.8511     760.6824
   1420.33569     940.0044     546.1161   1420.33569     940.0044     546.1161
   1420.32043     807.5269     469.6240   1420.32043     807.5269     469.6240
   1420.30518     759.3010     441.9215   1420.30518     759.3010     441.9215
   1420.28992     734.5012     426.3111   1420.28992     734.5012     426.3111
   1420.27466     718.4856     417.8821   1420.27466     718.4856     417.8821
   1420.25940     711.4465     412.2901   1420.25940     711.4465     412.2901
   1420.24414     705.6686     408.6163   1420.24414     705.6686     408.6163
   1420.22888     703.7896     406.7533   1420.22888     703.7896     406.7533
   1420.21362     699.3480     404.5461   1420.21362     699.3480     404.5461
   1420.19836     697.2711     402.2555   1420.19836     697.2711     402.2555
   1420.18311     695.2794     401.0988   1420.18311     695.2794     401.0988
   1420.16785     695.2521     399.3104   1420.16785     695.2521     399.3104
   1420.15259     693.6089     398.1970   1420.15259     693.6089     398.1970
   1420.13733     693.2418     397.6382   1420.13733     693.2418     397.6382
   1420.12207     692.0289     396.9819   1420.12207     692.0289     396.9819
   1420.10681     692.0093     395.8194   1420.10681     692.0093     395.8194
   1420.09155     690.1775     394.5482   1420.09155     690.1775     394.5482
   1420.07629     690.2501     393.1609   1420.07629     690.2501     393.1609
   1420.06104     689.8820     392.9452   1420.06104     689.8820     392.9452
   1420.04578     690.4095     392.3350   1420.04578     690.4095     392.3350
   1420.03052     689.8336     390.9954   1420.03052     689.8336     390.9954
   1420.01526     689.4390     392.4562   1420.01526     689.4390     392.4562
   1420.00000     690.5378     392.7005   1420.00000     690.5378     392.7005
   1419.98474     691.6364     392.9446   1419.98474     691.6364     392.9446
   1419.96948     691.5532     390.6691   1419.96948     691.5532     390.6691
   1419.95422     689.9185     388.9474   1419.95422     689.9185     388.9474
   1419.93896     688.8665     387.6551   1419.93896     688.8665     387.6551
   1419.92371     688.9858     387.2298   1419.92371     688.9858     387.2298
   1419.90845     688.3995     386.8935   1419.90845     688.3995     386.8935
   1419.89319     689.7133     386.8472   1419.89319     689.7133     386.8472
   1419.87793     688.7264     385.9272   1419.87793     688.7264     385.9272
   1419.86267     688.7981     385.2698   1419.86267     688.7981     385.2698
   1419.84741     690.3476     384.7301   1419.84741     690.3476     384.7301
   1419.83215     688.7856     384.1540   1419.83215     688.7856     384.1540
   1419.81689     690.2772     384.4708   1419.81689     690.2772     384.4708
   1419.80164     689.7144     384.1476   1419.80164     689.7144     384.1476
   1419.78638     690.6837     383.1064   1419.78638     690.6837     383.1064
   1419.77112     689.9117     383.1921   1419.77112     689.9117     383.1921
   1419.75586     690.6801     382.6221   1419.75586     690.6801     382.6221
   1419.74060     690.4025     382.4475   1419.74060     690.4025     382.4475
   1419.72534     689.8536     382.1384   1419.72534     689.8536     382.1384
   1419.71008     691.5668     382.0493   1419.71008     691.5668     382.0493
   1419.69482     690.8762     381.0481   1419.69482     690.8762     381.0481
   1419.67957     690.9032     380.9001   1419.67957     690.9032     380.9001
   1419.66431     690.5029     380.9049   1419.66431     690.5029     380.9049
   1419.64905     690.8947     380.7782   1419.64905     690.8947     380.7782
   1419.63379     689.7792     380.1939   1419.63379     689.7792     380.1939
   1419.61853     691.3348     379.7331   1419.61853     691.3348     379.7331
   1419.60327     690.7358     379.9469   1419.60327     690.7358     379.9469
   1419.58801     692.8345     379.1660   1419.58801     692.8345     379.1660
   1419.57275     692.2603     379.6458   1419.57275     692.2603     379.6458
   1419.55750     693.9330     378.9243   1419.55750     693.9330     378.9243
   1419.54224     692.7212     378.8990   1419.54224     692.7212     378.8990
   1419.52698     693.2571     378.9588   1419.52698     693.2571     378.9588
   1419.51172     693.5043     378.1627   1419.51172     693.5043     378.1627
   1419.49646     693.4744     377.8656   1419.49646     693.4744     377.8656
   1419.48120     694.2231     377.8607   1419.48120     694.2231     377.8607
   1419.46594     693.8326     377.8615   1419.46594     693.8326     377.8615
   1419.45068     694.5743     377.7693   1419.45068     694.5743     377.7693
   1419.43542     695.3364     377.5482   1419.43542     695.3364     377.5482
   1419.42017     695.8420     377.2098   1419.42017     695.8420     377.2098
   1419.40491     695.0009     377.1835   1419.40491     695.0009     377.1835
   1419.38965     696.8918     376.6339   1419.38965     696.8918     376.6339
   1419.37439     696.5370     377.3603   1419.37439     696.5370     377.3603
   1419.35913     695.7290     376.9195   1419.35913     695.7290     376.9195
   1419.34387     696.3086     376.4779   1419.34387     696.3086     376.4779
   1419.32861     698.1718     377.6260   1419.32861     698.1718     377.6260
   1419.31335     698.2153     376.6495   1419.31335     698.2153     376.6495
   1419.29810     698.4178     376.4602   1419.29810     698.4178     376.4602
   1419.28284     698.6559     376.9924   1419.28284     698.6559     376.9924
   1419.26758     699.3519     376.8550   1419.26758     699.3519     376.8550
   1419.25232     699.7480     376.9141   1419.25232     699.7480     376.9141
   1419.23706     700.2162     377.0560   1419.23706     700.2162     377.0560
   1419.22180     700.6789     377.0062   1419.22180     700.6789     377.0062
   1419.20654     700.8690     376.8140   1419.20654     700.8690     376.8140
   1419.19128     699.9893     376.8640   1419.19128     699.9893     376.8640
   1419.17603     701.9713     376.9142   1419.17603     701.9713     376.9142
   1419.16077     702.4302     376.8731   1419.16077     702.4302     376.8731
   1419.14551     702.9624     377.0308   1419.14551     702.9624     377.0308
   1419.13025     703.5358     376.9478   1419.13025     703.5358     376.9478
   1419.11499     703.1608     377.1316   1419.11499     703.1608     377.1316
   1419.09973     703.5609     377.4199   1419.09973     703.5609     377.4199
   1419.08447     705.1204     377.5352   1419.08447     705.1204     377.5352
   1419.06921     705.3470     377.7683   1419.06921     705.3470     377.7683
   1419.05396     705.3138     377.6159   1419.05396     705.3138     377.6159
   1419.03870     705.0067     377.8053   1419.03870     705.0067     377.8053
   1419.02344     705.7332     378.0085   1419.02344     705.7332     378.0085
   1419.00818     707.0858     377.8504   1419.00818     707.0858     377.8504
   1418.99292     707.0953     377.9637   1418.99292     707.0953     377.9637
   1418.97766     708.6805     378.6277   1418.97766     708.6805     378.6277
   1418.96240     708.1081     379.1998   1418.96240     708.1081     379.1998
   1418.94714     709.0278     379.0143   1418.94714     709.0278     379.0143
   1418.93188     708.7797     379.1405   1418.93188     708.7797     379.1405
   1418.91663     709.0393     379.4304   1418.91663     709.0393     379.4304
   1418.90137     711.2263     379.8142   1418.90137     711.2263     379.8142
   1418.88611     711.9162     380.5882   1418.88611     711.9162     380.5882
   1418.87085     711.3351     380.5719   1418.87085     711.3351     380.5719
   1418.85559     711.7595     380.3719   1418.85559     711.7595     380.3719
   1418.84033     712.6616     381.1809   1418.84033     712.6616     381.1809
   1418.82507     714.5053     380.9745   1418.82507     714.5053     380.9745
   1418.80981     714.7363     381.3943   1418.80981     714.7363     381.3943
   1418.79456     714.2239     381.9788   1418.79456     714.2239     381.9788
   1418.77930     716.5856     382.0962   1418.77930     716.5856     382.0962
   1418.76404     716.2697     383.0093   1418.76404     716.2697     383.0093
   1418.74878     716.0423     382.9167   1418.74878     716.0423     382.9167
   1418.73352     717.3926     382.9377   1418.73352     717.3926     382.9377
   1418.71826     718.6174     383.5718   1418.71826     718.6174     383.5718
   1418.70300     717.1510     384.0520   1418.70300     717.1510     384.0520
   1418.68774     720.3544     383.7503   1418.68774     720.3544     383.7503
   1418.67249     720.2597     384.8391   1418.67249     720.2597     384.8391
   1418.65723     720.9911     385.3446   1418.65723     720.9911     385.3446
   1418.64197     721.7836     385.0971   1418.64197     721.7836     385.0971
   1418.62671     723.1882     385.7755   1418.62671     723.1882     385.7755
   1418.61145     721.4204     385.8954   1418.61145     721.4204     385.8954
   1418.59619     723.1451     387.3206   1418.59619     723.1451     387.3206
   1418.58093     724.3549     387.4566   1418.58093     724.3549     387.4566
   1418.56567     725.0034     387.9442   1418.56567     725.0034     387.9442
   1418.55042     726.7014     388.6217   1418.55042     726.7014     388.6217
   1418.53516     726.0839     388.7214   1418.53516     726.0839     388.7214
   1418.51990     726.4725     389.4253   1418.51990     726.4725     389.4253
   1418.50464     727.7047     389.6782   1418.50464     727.7047     389.6782
   1418.48938     729.4183     390.1958   1418.48938     729.4183     390.1958
   1418.47412     730.2736     391.9264   1418.47412     730.2736     391.9264
   1418.45886     728.9077     391.2591   1418.45886     728.9077     391.2591
   1418.44360     731.1818     391.8131   1418.44360     731.1818     391.8131
   1418.42834     731.2913     392.8134   1418.42834     731.2913     392.8134
   1418.41309     733.4417     393.0940   1418.41309     733.4417     393.0940
   1418.39783     733.7023     393.9814   1418.39783     733.7023     393.9814
   1418.38257     733.6076     395.1392   1418.38257     733.6076     395.1392
   1418.36731     734.1755     395.5522   1418.36731     734.1755     395.5522
   1418.35205     735.3029     396.1430   1418.35205     735.3029     396.1430
   1418.33679     737.5745     396.7307   1418.33679     737.5745     396.7307
   1418.32153     737.3283     397.3568   1418.32153     737.3283     397.3568
   1418.30627     738.5215     397.6288   1418.30627     738.5215     397.6288
   1418.29102     739.7635     398.0499   1418.29102     739.7635     398.0499
   1418.27576     739.1619     399.4073   1418.27576     739.1619     399.4073
   1418.26050     739.4532     399.8828   1418.26050     739.4532     399.8828
   1418.24524     742.4681     400.9456   1418.24524     742.4681     400.9456
   1418.22998     742.6171     401.6664   1418.22998     742.6171     401.6664
   1418.21472     745.1611     402.3109   1418.21472     745.1611     402.3109
   1418.19946     744.6288     403.6862   1418.19946     744.6288     403.6862
   1418.18420     745.1978     403.8037   1418.18420     745.1978     403.8037
   1418.16895     745.9874     404.5422   1418.16895     745.9874     404.5422
   1418.15369     748.0608     405.0673   1418.15369     748.0608     405.0673
   1418.13843     747.3282     406.6051   1418.13843     747.3282     406.6051
   1418.12317     748.0519     406.7535   1418.12317     748.0519     406.7535
   1418.10791     751.6639     407.3981   1418.10791     751.6639     407.3981
   1418.09265     750.8503     408.2708   1418.09265     750.8503     408.2708
   1418.07739     750.7717     409.8758   1418.07739     750.7717     409.8758
   1418.06213     752.8842     410.1616   1418.06213     752.8842     410.1616
   1418.04688     753.0842     410.2152   1418.04688     753.0842     410.2152
   1418.03162     752.5840     411.5735   1418.03162     752.5840     411.5735
   1418.01636     754.3876     411.9007   1418.01636     754.3876     411.9007
   1418.00110     755.5681     414.1330   1418.00110     755.5681     414.1330
   1417.98584     757.3872     414.5842   1417.98584     757.3872     414.5842
   1417.97058     757.7318     415.5021   1417.97058     757.7318     415.5021
   1417.95532     757.8106     416.5104   1417.95532     757.8106     416.5104
   1417.94006     759.7894     417.4380   1417.94006     759.7894     417.4380
   1417.92480     759.0911     417.7999   1417.92480     759.0911     417.7999
   1417.90955     761.2700     419.2059   1417.90955     761.2700     419.2059
   1417.89429     763.4680     420.0249   1417.89429     763.4680     420.0249
   1417.87903     764.8331     420.6697   1417.87903     764.8331     420.6697
   1417.86377     764.1257     421.8232   1417.86377     764.1257     421.8232
   1417.84851     765.3487     422.2314   1417.84851     765.3487     422.2314
   1417.83325     767.3992     423.5661   1417.83325     767.3992     423.5661
   1417.81799     765.9662     425.5349   1417.81799     765.9662     425.5349
   1417.80273     767.9161     425.7249   1417.80273     767.9161     425.7249
   1417.78748     769.3781     426.8112   1417.78748     769.3781     426.8112
   1417.77222     769.9901     427.0924   1417.77222     769.9901     427.0924
   1417.75696     770.7533     429.0113   1417.75696     770.7533     429.0113
   1417.74170     771.0782     429.7842   1417.74170     771.0782     429.7842
   1417.72644     771.9613     431.0577   1417.72644     771.9613     431.0577
   1417.71118     773.0198     431.8337   1417.71118     773.0198     431.8337
   1417.69592     774.1087     432.8257   1417.69592     774.1087     432.8257
   1417.68066     775.5355     433.6620   1417.68066     775.5355     433.6620
   1417.66541     775.6673     434.8755   1417.66541     775.6673     434.8755
   1417.65015     776.1465     435.9054   1417.65015     776.1465     435.9054
   1417.63489     776.7697     437.0346   1417.63489     776.7697     437.0346
   1417.61963     778.3450     438.7812   1417.61963     778.3450     438.7812
   1417.60437     779.4778     439.9254   1417.60437     779.4778     439.9254
   1417.58911     781.5731     440.4437   1417.58911     781.5731     440.4437
   1417.57385     781.4895     441.5477   1417.57385     781.4895     441.5477
   1417.55859     782.7075     442.8131   1417.55859     782.7075     442.8131
   1417.54333     782.4053     443.5943   1417.54333     782.4053     443.5943
   1417.52808     783.6152     445.6244   1417.52808     783.6152     445.6244
   1417.51282     783.9164     445.8889   1417.51282     783.9164     445.8889
   1417.49756     784.3926     447.7184   1417.49756     784.3926     447.7184
   1417.48230     786.6696     448.2614   1417.48230     786.6696     448.2614
   1417.46704     785.6456     450.1752   1417.46704     785.6456     450.1752
   1417.45178     787.2899     450.6344   1417.45178     787.2899     450.6344
   1417.43652     787.2910     451.5751   1417.43652     787.2910     451.5751
   1417.42126     788.8797     453.4897   1417.42126     788.8797     453.4897
   1417.40601     789.6693     454.4623   1417.40601     789.6693     454.4623
   1417.39075     790.2213     455.5291   1417.39075     790.2213     455.5291
   1417.37549     790.6132     456.6851   1417.37549     790.6132     456.6851
   1417.36023     792.5336     458.2592   1417.36023     792.5336     458.2592
   1417.34497     793.0643     458.4633   1417.34497     793.0643     458.4633
   1417.32971     792.2231     460.2253   1417.32971     792.2231     460.2253
   1417.31445     794.9173     461.0632   1417.31445     794.9173     461.0632
   1417.29919     794.2133     462.5531   1417.29919     794.2133     462.5531
   1417.28394     795.9388     463.4826   1417.28394     795.9388     463.4826
   1417.26868     796.1257     464.8882   1417.26868     796.1257     464.8882
   1417.25342     796.3325     466.2758   1417.25342     796.3325     466.2758
   1417.23816     798.1800     466.3359   1417.23816     798.1800     466.3359
   1417.22290     798.5878     468.1423   1417.22290     798.5878     468.1423
   1417.20764     799.2856     468.6257   1417.20764     799.2856     468.6257
   1417.19238     799.6783     470.7734   1417.19238     799.6783     470.7734
   1417.17712     801.5016     471.9746   1417.17712     801.5016     471.9746
   1417.16187     801.8749     473.5855   1417.16187     801.8749     473.5855
   1417.14661     802.1407     473.5186   1417.14661     802.1407     473.5186
   1417.13135     800.8412     475.6171   1417.13135     800.8412     475.6171
   1417.11609     803.3265     476.6048   1417.11609     803.3265     476.6048
   1417.10083     803.0831     478.4950   1417.10083     803.0831     478.4950
   1417.08557     804.1928     478.6732   1417.08557     804.1928     478.6732
   1417.07031     803.6788     480.3263   1417.07031     803.6788     480.3263
   1417.05505     804.6774     481.3836   1417.05505     804.6774     481.3836
   1417.03979     804.8887     482.6146   1417.03979     804.8887     482.6146
   1417.02454     805.5231     483.5414   1417.02454     805.5231     483.5414
   1417.00928     805.2910     484.4561   1417.00928     805.2910     484.4561
   1416.99402     806.2449     486.3193   1416.99402     806.2449     486.3193
   1416.97876     808.8760     486.9621   1416.97876     808.8760     486.9621
   1416.96350     808.2738     488.8236   1416.96350     808.2738     488.8236
   1416.94824     807.9535     489.2200   1416.94824     807.9535     489.2200
   1416.93298     807.4127     490.8980   1416.93298     807.4127     490.8980
   1416.91772     810.3395     491.6843   1416.91772     810.3395     491.6843
   1416.90247     808.7518     491.8495   1416.90247     808.7518     491.8495
   1416.88721     811.8038     493.5763   1416.88721     811.8038     493.5763
   1416.87195     810.5651     494.4210   1416.87195     810.5651     494.4210
   1416.85669     810.2689     495.6984   1416.85669     810.2689     495.6984
   1416.84143     809.9302     496.9798   1416.84143     809.9302     496.9798
   1416.82617     811.3875     498.2196   1416.82617     811.3875     498.2196
   1416.81091     811.2933     498.2419   1416.81091     811.2933     498.2419
   1416.79565     810.7482     499.7872   1416.79565     810.7482     499.7872
   1416.78040     811.7455     501.0914   1416.78040     811.7455     501.0914
   1416.76514     811.6863     502.1181   1416.76514     811.6863     502.1181
   1416.74988     812.7575     502.9699   1416.74988     812.7575     502.9699
   1416.73462     812.0645     503.1064   1416.73462     812.0645     503.1064
   1416.71936     813.0509     504.8698   1416.71936     813.0509     504.8698
   1416.70410     812.7878     505.8687   1416.70410     812.7878     505.8687
   1416.68884     813.2230     506.6649   1416.68884     813.2230     506.6649
   1416.67358     811.7474     507.6984   1416.67358     811.7474     507.6984
   1416.65833     813.4551     508.1241   1416.65833     813.4551     508.1241
   1416.64307     813.5458     509.0416   1416.64307     813.5458     509.0416
   1416.62781     812.9174     510.7808   1416.62781     812.9174     510.7808
   1416.61255     813.5696     511.2160   1416.61255     813.5696     511.2160
   1416.59729     813.6796     511.7897   1416.59729     813.6796     511.7897
   1416.58203     812.5754     513.0810   1416.58203     812.5754     513.0810
   1416.56677     812.8051     513.0151   1416.56677     812.8051     513.0151
   1416.55151     813.9750     513.7769   1416.55151     813.9750     513.7769
   1416.53625     813.3904     514.8608   1416.53625     813.3904     514.8608
   1416.52100     811.9908     515.0698   1416.52100     811.9908     515.0698
   1416.50574     813.0618     516.5078   1416.50574     813.0618     516.5078
   1416.49048     810.8301     517.2687   1416.49048     810.8301     517.2687
   1416.47522     812.3334     517.6557   1416.47522     812.3334     517.6557
   1416.45996     811.8161     519.0583   1416.45996     811.8161     519.0583
   1416.44470     811.0104     518.6082   1416.44470     811.0104     518.6082
   1416.42944     810.8597     519.0485   1416.42944     810.8597     519.0485
   1416.41418     811.1133     520.7400   1416.41418     811.1133     520.7400
   1416.39893     810.7603     520.2914   1416.39893     810.7603     520.2914
   1416.38367     811.5789     520.6696   1416.38367     811.5789     520.6696
   1416.36841     810.2616     522.1448   1416.36841     810.2616     522.1448
   1416.35315     809.7104     522.0959   1416.35315     809.7104     522.0959
   1416.33789     808.5825     522.1619   1416.33789     808.5825     522.1619
   1416.32263     808.4921     522.3777   1416.32263     808.4921     522.3777
   1416.30737     808.7829     523.2121   1416.30737     808.7829     523.2121
   1416.29211     806.4249     523.8079   1416.29211     806.4249     523.8079
   1416.27686     807.0155     524.2095   1416.27686     807.0155     524.2095
   1416.26160     806.8104     524.0708   1416.26160     806.8104     524.0708
   1416.24634     807.0623     524.4741   1416.24634     807.0623     524.4741
   1416.23108     805.2629     523.7423   1416.23108     805.2629     523.7423
   1416.21582     807.3009     525.3940   1416.21582     807.3009     525.3940
   1416.20056     805.1612     525.6232   1416.20056     805.1612     525.6232
   1416.18530     803.3517     526.5161   1416.18530     803.3517     526.5161
   1416.17004     804.1782     525.6044   1416.17004     804.1782     525.6044
   1416.15479     803.1656     526.1863   1416.15479     803.1656     526.1863
   1416.13953     803.2130     526.2756   1416.13953     803.2130     526.2756
   1416.12427     801.0875     527.1982   1416.12427     801.0875     527.1982
   1416.10901     801.5147     527.4518   1416.10901     801.5147     527.4518
   1416.09375     801.1277     527.2430   1416.09375     801.1277     527.2430
   1416.07849     799.4197     527.5007   1416.07849     799.4197     527.5007
   1416.06323     799.7361     526.8435   1416.06323     799.7361     526.8435
   1416.04797     798.2507     527.5094   1416.04797     798.2507     527.5094
   1416.03271     798.3001     527.9341   1416.03271     798.3001     527.9341
   1416.01746     797.7473     528.3200   1416.01746     797.7473     528.3200
   1416.00220     795.8853     527.6769   1416.00220     795.8853     527.6769
   1415.98694     795.2573     527.9966   1415.98694     795.2573     527.9966
   1415.97168     796.0743     528.4622   1415.97168     796.0743     528.4622
   1415.95642     794.2480     527.9609   1415.95642     794.2480     527.9609
   1415.94116     793.3604     527.7709   1415.94116     793.3604     527.7709
   1415.92590     793.0618     527.5523   1415.92590     793.0618     527.5523
   1415.91064     792.1100     526.9975   1415.91064     792.1100     526.9975
   1415.89539     791.7660     526.3248   1415.89539     791.7660     526.3248
   1415.88013     791.4054     527.5451   1415.88013     791.4054     527.5451
   1415.86487     790.4247     527.2444   1415.86487     790.4247     527.2444
   1415.84961     790.1702     527.3472   1415.84961     790.1702     527.3472
   1415.83435     788.1915     528.2769   1415.83435     788.1915     528.2769
   1415.81909     788.3957     527.0018   1415.81909     788.3957     527.0018
   1415.80383     786.8868     526.7542   1415.80383     786.8868     526.7542
   1415.78857     786.3833     526.2567   1415.78857     786.3833     526.2567
   1415.77332     784.7736     527.4788   1415.77332     784.7736     527.4788
   1415.75806     783.7302     527.1303   1415.75806     783.7302     527.1303
   1415.74280     782.0242     526.7140   1415.74280     782.0242     526.7140
   1415.72754     781.6647     526.8675   1415.72754     781.6647     526.8675
   1415.71228     780.8801     526.2616   1415.71228     780.8801     526.2616
   1415.69702     779.6592     525.1171   1415.69702     779.6592     525.1171
   1415.68176     779.6884     525.1215   1415.68176     779.6884     525.1215
   1415.66650     778.9799     526.0779   1415.66650     778.9799     526.0779
   1415.65125     776.8986     523.9954   1415.65125     776.8986     523.9954
   1415.63599     776.2119     523.4748   1415.63599     776.2119     523.4748
   1415.62073     775.9642     525.1071   1415.62073     775.9642     525.1071
   1415.60547     774.3005     524.9048   1415.60547     774.3005     524.9048
   1415.59021     772.2861     523.6913   1415.59021     772.2861     523.6913
   1415.57495     770.4227     522.9630   1415.57495     770.4227     522.9630
   1415.55969     769.8278     522.9352   1415.55969     769.8278     522.9352
   1415.54443     768.5721     522.5197   1415.54443     768.5721     522.5197
   1415.52917     767.5643     522.7142   1415.52917     767.5643     522.7142
   1415.51392     768.8012     521.9890   1415.51392     768.8012     521.9890
   1415.49866     766.0397     522.0284   1415.49866     766.0397     522.0284
   1415.48340     764.9024     521.3306   1415.48340     764.9024     521.3306
   1415.46814     763.7006     521.3181   1415.46814     763.7006     521.3181
   1415.45288     762.4219     521.4584   1415.45288     762.4219     521.4584
   1415.43762     763.3675     519.6506   1415.43762     763.3675     519.6506
   1415.42236     760.2770     519.4796   1415.42236     760.2770     519.4796
   1415.40710     758.4751     519.2528   1415.40710     758.4751     519.2528
   1415.39185     757.4155     518.3446   1415.39185     757.4155     518.3446
   1415.37659     756.0392     518.4882   1415.37659     756.0392     518.4882
   1415.36133     755.1313     518.8669   1415.36133     755.1313     518.8669
   1415.34607     753.4598     517.8290   1415.34607     753.4598     517.8290
   1415.33081     753.9009     516.3723   1415.33081     753.9009     516.3723
   1415.31555     751.0276     515.9975   1415.31555     751.0276     515.9975
   1415.30029     749.7773     515.8157   1415.30029     749.7773     515.8157
   1415.28503     750.2595     515.8113   1415.28503     750.2595     515.8113
   1415.26978     748.7222     514.7789   1415.26978     748.7222     514.7789
   1415.25452     746.4495     514.6759   1415.25452     746.4495     514.6759
   1415.23926     745.6603     514.2035   1415.23926     745.6603     514.2035
   1415.22400     743.8558     513.0145   1415.22400     743.8558     513.0145
   1415.20874     742.1333     513.0087   1415.20874     742.1333     513.0087
   1415.19348     741.3403     511.9032   1415.19348     741.3403     511.9032
   1415.17822     737.8680     511.1157   1415.17822     737.8680     511.1157
   1415.16296     737.4147     510.5670   1415.16296     737.4147     510.5670
   1415.14771     736.8172     510.9261   1415.14771     736.8172     510.9261
   1415.13245     735.1985     510.3250   1415.13245     735.1985     510.3250
   1415.11719     733.6980     509.3539   1415.11719     733.6980     509.3539
   1415.10193     732.1335     508.3168   1415.10193     732.1335     508.3168
   1415.08667     730.0307     507.7317   1415.08667     730.0307     507.7317
   1415.07141     728.7958     507.4530   1415.07141     728.7958     507.4530
   1415.05615     727.8056     506.3637   1415.05615     727.8056     506.3637
   1415.04089     726.1391     506.0637   1415.04089     726.1391     506.0637
   1415.02563     724.9815     504.3552   1415.02563     724.9815     504.3552
   1415.01038     723.5300     503.4940   1415.01038     723.5300     503.4940
   1414.99512     720.4036     502.5507   1414.99512     720.4036     502.5507
   1414.97986     720.2562     502.4682   1414.97986     720.2562     502.4682
   1414.96460     719.4759     501.9286   1414.96460     719.4759     501.9286
   1414.94934     717.2579     500.7338   1414.94934     717.2579     500.7338
   1414.93408     714.9504     500.5780   1414.93408     714.9504     500.5780
   1414.91882     711.8146     499.9541   1414.91882     711.8146     499.9541
   1414.90356     711.5674     498.6896   1414.90356     711.5674     498.6896
   1414.88831     709.5124     498.1338   1414.88831     709.5124     498.1338
   1414.87305     708.5154     496.2285   1414.87305     708.5154     496.2285
   1414.85779     706.1399     496.1742   1414.85779     706.1399     496.1742
   1414.84253     705.2164     495.5814   1414.84253     705.2164     495.5814
   1414.82727     702.4570     495.1196   1414.82727     702.4570     495.1196
   1414.81201     700.7384     493.0333   1414.81201     700.7384     493.0333
   1414.79675     698.5894     491.9014   1414.79675     698.5894     491.9014
   1414.78149     697.6336     492.2256   1414.78149     697.6336     492.2256
   1414.76624     695.0272     490.5814   1414.76624     695.0272     490.5814
   1414.75098     693.3857     490.1931   1414.75098     693.3857     490.1931
   1414.73572     692.4180     488.4509   1414.73572     692.4180     488.4509
   1414.72046     690.5049     487.9019   1414.72046     690.5049     487.9019
   1414.70520     687.5697     486.2178   1414.70520     687.5697     486.2178
   1414.68994     686.9777     484.8061   1414.68994     686.9777     484.8061
   1414.67468     683.5046     484.5119   1414.67468     683.5046     484.5119
   1414.65942     682.2180     483.8442   1414.65942     682.2180     483.8442
   1414.64417     679.9007     481.5170   1414.64417     679.9007     481.5170
   1414.62891     677.2183     481.3530   1414.62891     677.2183     481.3530
   1414.61365     676.2711     480.5851   1414.61365     676.2711     480.5851
   1414.59839     673.7983     479.0892   1414.59839     673.7983     479.0892
   1414.58313     671.4533     477.3996   1414.58313     671.4533     477.3996
   1414.56787     670.0646     476.6933   1414.56787     670.0646     476.6933
   1414.55261     667.5711     475.6071   1414.55261     667.5711     475.6071
   1414.53735     665.5798     474.4688   1414.53735     665.5798     474.4688
   1414.52209     662.8070     473.2240   1414.52209     662.8070     473.2240
   1414.50684     660.8804     471.5369   1414.50684     660.8804     471.5369
   1414.49158     658.8220     470.1376   1414.49158     658.8220     470.1376
   1414.47632     656.4603     469.0538   1414.47632     656.4603     469.0538
   1414.46106     654.7057     468.2527   1414.46106     654.7057     468.2527
   1414.44580     651.8353     466.9944   1414.44580     651.8353     466.9944
   1414.43054     649.3459     465.5015   1414.43054     649.3459     465.5015
   1414.41528     648.1950     464.3085   1414.41528     648.1950     464.3085
   1414.40002     644.6454     462.3432   1414.40002     644.6454     462.3432
   1414.38477     643.3447     461.5935   1414.38477     643.3447     461.5935
   1414.36951     640.8535     460.5589   1414.36951     640.8535     460.5589
   1414.35425     637.8198     458.9526   1414.35425     637.8198     458.9526
   1414.33899     635.2228     457.1668   1414.33899     635.2228     457.1668
   1414.32373     634.1288     455.6806   1414.32373     634.1288     455.6806
   1414.30847     630.6292     455.4362   1414.30847     630.6292     455.4362
   1414.29321     629.2826     453.3665   1414.29321     629.2826     453.3665
   1414.27795     627.3225     451.9256   1414.27795     627.3225     451.9256
   1414.26270     623.8779     450.8509   1414.26270     623.8779     450.8509
   1414.24744     621.4484     449.3899   1414.24744     621.4484     449.3899
   1414.23218     619.2334     447.7679   1414.23218     619.2334     447.7679
   1414.21692     616.9899     446.2259   1414.21692     616.9899     446.2259
   1414.20166     614.1843     444.4803   1414.20166     614.1843     444.4803
   1414.18640     610.9929     443.3188   1414.18640     610.9929     443.3188
   1414.17114     608.2096     442.3425   1414.17114     608.2096     442.3425
   1414.15588     607.2864     440.2581   1414.15588     607.2864     440.2581
   1414.14062     604.3972     438.8249   1414.14062     604.3972     438.8249
   1414.12537     600.8336     437.7227   1414.12537     600.8336     437.7227
   1414.11011     598.5924     435.2825   1414.11011     598.5924     435.2825
   1414.09485     595.1928     434.1494   1414.09485     595.1928     434.1494
   1414.07959     593.2889     432.7901   1414.07959     593.2889     432.7901
   1414.06433     591.2726     430.8692   1414.06433     591.2726     430.8692
   1414.04907     588.4154     429.3851   1414.04907     588.4154     429.3851
   1414.03381     585.8379     427.9587   1414.03381     585.8379     427.9587
   1414.01855     584.3278     426.6564   1414.01855     584.3278     426.6564
   1414.00330     611.5251     433.9033   1414.00330     611.5251     433.9033
   1413.98804     579.6992     423.9829   1413.98804     579.6992     423.9829
   1413.97278     575.3474     421.2314   1413.97278     575.3474     421.2314
   1413.95752     572.6366     419.5137   1413.95752     572.6366     419.5137
   1413.94226     569.9307     418.3506   1413.94226     569.9307     418.3506
   1413.92700     566.5732     416.4500   1413.92700     566.5732     416.4500
   1413.91174     565.1932     414.7034   1413.91174     565.1932     414.7034
   1413.89648     562.8433     413.4169   1413.89648     562.8433     413.4169
   1413.88123     559.1771     411.4485   1413.88123     559.1771     411.4485
   1413.86597     555.5416     410.0078   1413.86597     555.5416     410.0078
   1413.85071     553.4842     408.5869   1413.85071     553.4842     408.5869
   1413.83545     551.1044     407.3151   1413.83545     551.1044     407.3151
   1413.82019     548.1219     404.7261   1413.82019     548.1219     404.7261
   1413.80493     544.9368     403.1111   1413.80493     544.9368     403.1111
   1413.78967     542.6998     401.3547   1413.78967     542.6998     401.3547
   1413.77441     539.6525     399.9867   1413.77441     539.6525     399.9867
   1413.75916     536.8533     397.6824   1413.75916     536.8533     397.6824
   1413.74390     533.9537     396.7542   1413.74390     533.9537     396.7542
   1413.72864     530.6771     394.4196   1413.72864     530.6771     394.4196
   1413.71338     528.4430     393.2562   1413.71338     528.4430     393.2562
   1413.69812     525.2598     391.1513   1413.69812     525.2598     391.1513
   1413.68286     523.3253     389.4721   1413.68286     523.3253     389.4721
   1413.66760     520.0221     387.8237   1413.66760     520.0221     387.8237
   1413.65234     517.9938     386.2288   1413.65234     517.9938     386.2288
   1413.63708     515.6011     384.7387   1413.63708     515.6011     384.7387
   1413.62183     512.0889     382.6000   1413.62183     512.0889     382.6000
   1413.60657     510.4229     380.8778   1413.60657     510.4229     380.8778
   1413.59131     507.5246     379.8221   1413.59131     507.5246     379.8221
   1413.57605     504.3514     378.5307   1413.57605     504.3514     378.5307
   1413.56079     501.4593     375.6476   1413.56079     501.4593     375.6476
   1413.54553     498.8298     374.2324   1413.54553     498.8298     374.2324
   1413.53027     496.1413     372.4417   1413.53027     496.1413     372.4417
   1413.51501     493.0660     370.9738   1413.51501     493.0660     370.9738
   1413.49976     490.9402     369.2889   1413.49976     490.9402     369.2889
   1413.48450     487.7481     367.7113   1413.48450     487.7481     367.7113
   1413.46924     486.0202     366.5019   1413.46924     486.0202     366.5019
   1413.45398     482.6556     364.1949   1413.45398     482.6556     364.1949
   1413.43872     479.6353     363.1859   1413.43872     479.6353     363.1859
   1413.42346     476.9143     360.9135   1413.42346     476.9143     360.9135
   1413.40820     474.2679     359.4843   1413.40820     474.2679     359.4843
   1413.39294     472.6385     358.2805   1413.39294     472.6385     358.2805
   1413.37769     468.9051     356.4483   1413.37769     468.9051     356.4483
   1413.36243     466.9376     355.3962   1413.36243     466.9376     355.3962
   1413.34717     464.3766     354.3482   1413.34717     464.3766     354.3482
   1413.33191     461.4024     351.5288   1413.33191     461.4024     351.5288
   1413.31665     459.2332     350.0161   1413.31665     459.2332     350.0161
   1413.30139     457.1198     348.9362   1413.30139     457.1198     348.9362
   1413.28613     454.4154     347.9677   1413.28613     454.4154     347.9677
   1413.27087     452.1539     346.3236   1413.27087     452.1539     346.3236
   1413.25562     449.6475     344.4551   1413.25562     449.6475     344.4551
   1413.24036     447.7166     343.2519   1413.24036     447.7166     343.2519
   1413.22510     444.7086     341.9832   1413.22510     444.7086     341.9832
   1413.20984     442.8094     340.0439   1413.20984     442.8094     340.0439
   1413.19458     440.7707     339.0205   1413.19458     440.7707     339.0205
   1413.17932     438.1323     338.0748   1413.17932     438.1323     338.0748
   1413.16406     435.0743     336.5814   1413.16406     435.0743     336.5814
   1413.14880     433.4948     335.6826   1413.14880     433.4948     335.6826
   1413.13354     431.1087     334.3089   1413.13354     431.1087     334.3089
   1413.11829     428.5120     332.8742   1413.11829     428.5120     332.8742
   1413.10303     427.0116     331.5348   1413.10303     427.0116     331.5348
   1413.08777     424.2240     330.3794   1413.08777     424.2240     330.3794
   1413.07251     421.1590     329.0363   1413.07251     421.1590     329.0363
   1413.05725     419.9185     328.5470   1413.05725     419.9185     328.5470
   1413.04199     418.1689     327.1337   1413.04199     418.1689     327.1337
   1413.02673     415.7197     325.5216   1413.02673     415.7197     325.5216
   1413.01147     413.4908     325.0959   1413.01147     413.4908     325.0959
   1412.99622     412.2248     323.9924   1412.99622     412.2248     323.9924
   1412.98096     409.6325     323.0576   1412.98096     409.6325     323.0576
   1412.96570     408.8111     322.5848   1412.96570     408.8111     322.5848
   1412.95044     406.1812     321.1104   1412.95044     406.1812     321.1104
   1412.93518     404.2385     320.5713   1412.93518     404.2385     320.5713
   1412.91992     402.9441     319.4348   1412.91992     402.9441     319.4348
   1412.90466     401.4685     318.7650   1412.90466     401.4685     318.7650
   1412.88940     399.0208     317.9065   1412.88940     399.0208     317.9065
   1412.87415     397.4401     317.9104   1412.87415     397.4401     317.9104
   1412.85889     395.7627     316.4267   1412.85889     395.7627     316.4267
   1412.84363     395.0324     316.4770   1412.84363     395.0324     316.4770
   1412.82837     393.1163     315.8222   1412.82837     393.1163     315.8222
   1412.81311     392.1107     315.3158   1412.81311     392.1107     315.3158
   1412.79785     389.7955     313.7311   1412.79785     389.7955     313.7311
   1412.78259     388.4338     314.4038   1412.78259     388.4338     314.4038
   1412.76733     387.5562     314.0047   1412.76733     387.5562     314.0047
   1412.75208     386.2617     313.1129   1412.75208     386.2617     313.1129
   1412.73682     385.1142     313.0352   1412.73682     385.1142     313.0352
   1412.72156     383.5003     312.6987   1412.72156     383.5003     312.6987
   1412.70630     382.3901     312.0951   1412.70630     382.3901     312.0951
   1412.69104     381.4221     312.1331   1412.69104     381.4221     312.1331
   1412.67578     380.1130     312.3657   1412.67578     380.1130     312.3657
   1412.66052     379.3779     311.9436   1412.66052     379.3779     311.9436
   1412.64526     378.2482     312.0907   1412.64526     378.2482     312.0907
   1412.63000     377.0851     311.8429   1412.63000     377.0851     311.8429
   1412.61475     376.4234     311.7190   1412.61475     376.4234     311.7190
   1412.59949     374.9344     311.9737   1412.59949     374.9344     311.9737
   1412.58423     374.3308     311.8041   1412.58423     374.3308     311.8041
   1412.56897     374.0321     311.9541   1412.56897     374.0321     311.9541
   1412.55371     373.3326     312.5509   1412.55371     373.3326     312.5509
   1412.53845     373.3218     312.3577   1412.53845     373.3218     312.3577
   1412.52319     372.5443     313.1146   1412.52319     372.5443     313.1146
   1412.50793     371.9615     312.9779   1412.50793     371.9615     312.9779
   1412.49268     371.5032     313.9788   1412.49268     371.5032     313.9788
   1412.47742     370.8140     314.4789   1412.47742     370.8140     314.4789
   1412.46216     370.6370     314.0404   1412.46216     370.6370     314.0404
   1412.44690     370.1224     315.0942   1412.44690     370.1224     315.0942
   1412.43164     369.7137     315.5441   1412.43164     369.7137     315.5441
   1412.41638     370.1069     315.5372   1412.41638     370.1069     315.5372
   1412.40112     369.7904     316.7639   1412.40112     369.7904     316.7639
   1412.38586     369.6924     317.1021   1412.38586     369.6924     317.1021
   1412.37061     369.1194     318.6342   1412.37061     369.1194     318.6342
   1412.35535     369.2672     319.1160   1412.35535     369.2672     319.1160
   1412.34009     369.7977     320.4758   1412.34009     369.7977     320.4758
   1412.32483     370.3135     321.0159   1412.32483     370.3135     321.0159
   1412.30957     369.8897     321.7608   1412.30957     369.8897     321.7608
   1412.29431     370.0317     322.8207   1412.29431     370.0317     322.8207
   1412.27905     370.4830     323.6255   1412.27905     370.4830     323.6255
   1412.26379     370.4870     324.8160   1412.26379     370.4870     324.8160
   1412.24854     371.8668     326.1322   1412.24854     371.8668     326.1322
   1412.23328     371.8268     326.7853   1412.23328     371.8268     326.7853
   1412.21802     372.0659     327.8711   1412.21802     372.0659     327.8711
   1412.20276     372.7239     329.4820   1412.20276     372.7239     329.4820