#     FILENAME=!Skynet_57528_lach-hhg-180_20571_21003.cyb.fits
#     BASENAME=Skynet_57528_lach-hhg-180_20571_21003
#     SRC_NAME=lach-hhg-180
#     OBSERVER=hhgmadison16_9500
#     DATE_OBS=2016-05-20T18:40:11.620
#        OBSID=20571
#      SCANNUM=21003
#          MJD=57528.7790
#          UTC=67300
#     SCANTYPE=track
#     DATAMODE=HIRES
#     TUNEFREQ=1420.0000
# Actual_FREQ1=1420.0000
# Actual_FREQ2=1420.0000
#    LO1Tuning=6870.000
#     RFFILTER=1355_1435
#        OBSBW=-15.6250
#        NCHAN=1024 
#        FOCUS=37.0709
#           RA=05:45:34.65
#          DEC=28:56:10.21
#      RA(hrs)=5.759600
#     DEC(deg)=28.936200
#    AZIM(deg)=143.767
#    ELEV(deg)=78.503
#     IFattens=10.00, 9.00
#      WARNING=None
#    TCAL_XL1=7.9635
#    TCAL_YR1=9.1340
#    TCAL_XL2=7.9635
#    TCAL_YR2=9.1340
#     TRX_XL1=11.7060
#     TRX_YR1=11.7060
#     TRX_XL2=11.7060
#     TRX_YR2=11.7060
#        TAVE=1.0000
#Freq1(MHz)          XL1          YR1  Freq2(MHz)          XL2          YR2 

   1427.81250     378.4919     343.5099   1427.81250     378.4919     343.5099
   1427.79724     378.4152     345.2254   1427.79724     378.4152     345.2254
   1427.78198     379.8462     347.0185   1427.78198     379.8462     347.0185
   1427.76672     380.2609     348.6032   1427.76672     380.2609     348.6032
   1427.75146     380.7443     350.0445   1427.75146     380.7443     350.0445
   1427.73621     381.8947     352.6442   1427.73621     381.8947     352.6442
   1427.72095     383.0099     354.0683   1427.72095     383.0099     354.0683
   1427.70569     383.9487     355.8960   1427.70569     383.9487     355.8960
   1427.69043     384.8310     358.3204   1427.69043     384.8310     358.3204
   1427.67517     385.4810     360.3321   1427.67517     385.4810     360.3321
   1427.65991     387.2367     361.7254   1427.65991     387.2367     361.7254
   1427.64465     387.8748     364.4793   1427.64465     387.8748     364.4793
   1427.62939     389.4908     366.7222   1427.62939     389.4908     366.7222
   1427.61414     390.1301     367.9395   1427.61414     390.1301     367.9395
   1427.59888     392.0415     370.6102   1427.59888     392.0415     370.6102
   1427.58362     393.3817     372.4145   1427.58362     393.3817     372.4145
   1427.56836     395.1862     375.4829   1427.56836     395.1862     375.4829
   1427.55310     395.9640     377.6134   1427.55310     395.9640     377.6134
   1427.53784     397.7202     379.9710   1427.53784     397.7202     379.9710
   1427.52258     399.0778     382.0883   1427.52258     399.0778     382.0883
   1427.50732     401.6314     384.9331   1427.50732     401.6314     384.9331
   1427.49207     402.5179     387.1446   1427.49207     402.5179     387.1446
   1427.47681     404.0040     389.4638   1427.47681     404.0040     389.4638
   1427.46155     406.6324     392.0519   1427.46155     406.6324     392.0519
   1427.44629     407.8266     394.9346   1427.44629     407.8266     394.9346
   1427.43103     409.8741     397.4480   1427.43103     409.8741     397.4480
   1427.41577     412.0497     400.4058   1427.41577     412.0497     400.4058
   1427.40051     413.2528     402.5011   1427.40051     413.2528     402.5011
   1427.38525     415.8901     404.8214   1427.38525     415.8901     404.8214
   1427.37000     418.0077     408.2326   1427.37000     418.0077     408.2326
   1427.35474     420.0319     409.8043   1427.35474     420.0319     409.8043
   1427.33948     421.6537     413.1382   1427.33948     421.6537     413.1382
   1427.32422     424.4604     416.3151   1427.32422     424.4604     416.3151
   1427.30896     425.9365     418.6434   1427.30896     425.9365     418.6434
   1427.29370     428.7843     421.3009   1427.29370     428.7843     421.3009
   1427.27844     431.5234     424.1070   1427.27844     431.5234     424.1070
   1427.26318     433.0901     427.6384   1427.26318     433.0901     427.6384
   1427.24792     435.5493     430.1656   1427.24792     435.5493     430.1656
   1427.23267     438.1055     432.8621   1427.23267     438.1055     432.8621
   1427.21741     439.8696     435.4349   1427.21741     439.8696     435.4349
   1427.20215     442.5677     439.0064   1427.20215     442.5677     439.0064
   1427.18689     444.8957     440.7410   1427.18689     444.8957     440.7410
   1427.17163     448.2476     443.4153   1427.17163     448.2476     443.4153
   1427.15637     450.8224     447.3416   1427.15637     450.8224     447.3416
   1427.14111     452.2712     450.3220   1427.14111     452.2712     450.3220
   1427.12585     455.5941     453.3438   1427.12585     455.5941     453.3438
   1427.11060     457.2444     455.7575   1427.11060     457.2444     455.7575
   1427.09534     461.5038     458.8771   1427.09534     461.5038     458.8771
   1427.08008     463.0721     461.7847   1427.08008     463.0721     461.7847
   1427.06482     466.6474     464.9225   1427.06482     466.6474     464.9225
   1427.04956     468.5032     467.4661   1427.04956     468.5032     467.4661
   1427.03430     471.6349     470.5172   1427.03430     471.6349     470.5172
   1427.01904     474.2180     473.2144   1427.01904     474.2180     473.2144
   1427.00378     477.6024     476.1245   1427.00378     477.6024     476.1245
   1426.98853     480.6541     479.0123   1426.98853     480.6541     479.0123
   1426.97327     483.2389     481.3594   1426.97327     483.2389     481.3594
   1426.95801     485.4856     484.2926   1426.95801     485.4856     484.2926
   1426.94275     487.8788     487.3394   1426.94275     487.8788     487.3394
   1426.92749     491.4454     489.6946   1426.92749     491.4454     489.6946
   1426.91223     495.2864     493.1875   1426.91223     495.2864     493.1875
   1426.89697     497.6239     495.8636   1426.89697     497.6239     495.8636
   1426.88171     500.2641     498.5898   1426.88171     500.2641     498.5898
   1426.86646     503.1599     501.8539   1426.86646     503.1599     501.8539
   1426.85120     506.0868     503.5745   1426.85120     506.0868     503.5745
   1426.83594     508.9105     506.2157   1426.83594     508.9105     506.2157
   1426.82068     512.9456     509.8199   1426.82068     512.9456     509.8199
   1426.80542     515.8746     511.9615   1426.80542     515.8746     511.9615
   1426.79016     517.8038     515.5478   1426.79016     517.8038     515.5478
   1426.77490     522.0102     517.5836   1426.77490     522.0102     517.5836
   1426.75964     524.3090     519.2965   1426.75964     524.3090     519.2965
   1426.74438     527.5685     522.1966   1426.74438     527.5685     522.1966
   1426.72913     530.8037     524.7584   1426.72913     530.8037     524.7584
   1426.71387     534.4954     527.4395   1426.71387     534.4954     527.4395
   1426.69861     536.1775     530.4182   1426.69861     536.1775     530.4182
   1426.68335     540.8034     533.8043   1426.68335     540.8034     533.8043
   1426.66809     543.7288     534.9420   1426.66809     543.7288     534.9420
   1426.65283     546.9644     538.0932   1426.65283     546.9644     538.0932
   1426.63757     549.5907     540.1635   1426.63757     549.5907     540.1635
   1426.62231     554.5629     544.0342   1426.62231     554.5629     544.0342
   1426.60706     556.4146     544.2535   1426.60706     556.4146     544.2535
   1426.59180     559.0929     546.8177   1426.59180     559.0929     546.8177
   1426.57654     562.3047     549.3748   1426.57654     562.3047     549.3748
   1426.56128     565.8895     552.4833   1426.56128     565.8895     552.4833
   1426.54602     569.1616     553.7922   1426.54602     569.1616     553.7922
   1426.53076     572.1125     555.1548   1426.53076     572.1125     555.1548
   1426.51550     575.2982     559.0817   1426.51550     575.2982     559.0817
   1426.50024     577.4466     561.0358   1426.50024     577.4466     561.0358
   1426.48499     580.6237     562.4968   1426.48499     580.6237     562.4968
   1426.46973     584.1275     564.8140   1426.46973     584.1275     564.8140
   1426.45447     586.9886     566.5718   1426.45447     586.9886     566.5718
   1426.43921     588.8330     568.8097   1426.43921     588.8330     568.8097
   1426.42395     593.4612     570.6797   1426.42395     593.4612     570.6797
   1426.40869     595.4384     573.1846   1426.40869     595.4384     573.1846
   1426.39343     598.3124     574.9505   1426.39343     598.3124     574.9505
   1426.37817     601.2919     577.4461   1426.37817     601.2919     577.4461
   1426.36292     604.3909     579.4830   1426.36292     604.3909     579.4830
   1426.34766     607.2491     579.6620   1426.34766     607.2491     579.6620
   1426.33240     611.2985     583.0232   1426.33240     611.2985     583.0232
   1426.31714     614.5994     584.4360   1426.31714     614.5994     584.4360
   1426.30188     616.6041     586.8590   1426.30188     616.6041     586.8590
   1426.28662     619.5156     588.3090   1426.28662     619.5156     588.3090
   1426.27136     623.1343     590.1736   1426.27136     623.1343     590.1736
   1426.25610     625.0886     590.8775   1426.25610     625.0886     590.8775
   1426.24084     630.0141     593.2018   1426.24084     630.0141     593.2018
   1426.22559     630.7688     594.2429   1426.22559     630.7688     594.2429
   1426.21033     634.3147     596.5186   1426.21033     634.3147     596.5186
   1426.19507     636.4428     597.5723   1426.19507     636.4428     597.5723
   1426.17981     639.6790     599.6053   1426.17981     639.6790     599.6053
   1426.16455     642.9142     600.0645   1426.16455     642.9142     600.0645
   1426.14929     645.0582     602.5311   1426.14929     645.0582     602.5311
   1426.13403     647.5132     603.5001   1426.13403     647.5132     603.5001
   1426.11877     651.4166     603.8638   1426.11877     651.4166     603.8638
   1426.10352     653.5488     606.7896   1426.10352     653.5488     606.7896
   1426.08826     655.6241     606.1877   1426.08826     655.6241     606.1877
   1426.07300     658.9153     609.3348   1426.07300     658.9153     609.3348
   1426.05774     659.7573     609.6147   1426.05774     659.7573     609.6147
   1426.04248     663.4827     611.3005   1426.04248     663.4827     611.3005
   1426.02722     666.1871     613.8115   1426.02722     666.1871     613.8115
   1426.01196     668.5481     614.5812   1426.01196     668.5481     614.5812
   1425.99670     671.5148     615.5456   1425.99670     671.5148     615.5456
   1425.98145     673.0937     617.2304   1425.98145     673.0937     617.2304
   1425.96619     676.7188     617.2292   1425.96619     676.7188     617.2292
   1425.95093     678.6350     618.6530   1425.95093     678.6350     618.6530
   1425.93567     681.4059     618.5151   1425.93567     681.4059     618.5151
   1425.92041     683.6367     620.7516   1425.92041     683.6367     620.7516
   1425.90515     685.5614     620.4319   1425.90515     685.5614     620.4319
   1425.88989     688.4235     622.8973   1425.88989     688.4235     622.8973
   1425.87463     690.6904     623.7903   1425.87463     690.6904     623.7903
   1425.85938     693.1410     624.2275   1425.85938     693.1410     624.2275
   1425.84412     694.6110     625.1891   1425.84412     694.6110     625.1891
   1425.82886     696.0687     625.7252   1425.82886     696.0687     625.7252
   1425.81360     699.0807     625.9069   1425.81360     699.0807     625.9069
   1425.79834     702.0400     627.7759   1425.79834     702.0400     627.7759
   1425.78308     702.3572     628.4507   1425.78308     702.3572     628.4507
   1425.76782     704.5798     628.7826   1425.76782     704.5798     628.7826
   1425.75256     706.8190     629.6783   1425.75256     706.8190     629.6783
   1425.73730     708.4337     630.7678   1425.73730     708.4337     630.7678
   1425.72205     712.4570     630.7779   1425.72205     712.4570     630.7779
   1425.70679     713.0654     631.0673   1425.70679     713.0654     631.0673
   1425.69153     715.2072     632.6225   1425.69153     715.2072     632.6225
   1425.67627     716.6459     634.2258   1425.67627     716.6459     634.2258
   1425.66101     717.9048     632.8492   1425.66101     717.9048     632.8492
   1425.64575     720.0326     634.0162   1425.64575     720.0326     634.0162
   1425.63049     722.7603     634.5052   1425.63049     722.7603     634.5052
   1425.61523     723.1334     634.2118   1425.61523     723.1334     634.2118
   1425.59998     724.8148     635.1194   1425.59998     724.8148     635.1194
   1425.58472     726.7699     635.0716   1425.58472     726.7699     635.0716
   1425.56946     729.3466     635.0379   1425.56946     729.3466     635.0379
   1425.55420     728.9382     636.9042   1425.55420     728.9382     636.9042
   1425.53894     731.8526     636.7667   1425.53894     731.8526     636.7667
   1425.52368     732.4233     637.5773   1425.52368     732.4233     637.5773
   1425.50842     734.6982     638.3026   1425.50842     734.6982     638.3026
   1425.49316     735.8481     637.1092   1425.49316     735.8481     637.1092
   1425.47791     737.6988     637.2696   1425.47791     737.6988     637.2696
   1425.46265     738.6842     639.6565   1425.46265     738.6842     639.6565
   1425.44739     739.9832     639.2755   1425.44739     739.9832     639.2755
   1425.43213     740.9293     638.6280   1425.43213     740.9293     638.6280
   1425.41687     743.5173     639.6756   1425.41687     743.5173     639.6756
   1425.40161     743.4833     638.0459   1425.40161     743.4833     638.0459
   1425.38635     746.2660     639.6842   1425.38635     746.2660     639.6842
   1425.37109     745.7407     639.6057   1425.37109     745.7407     639.6057
   1425.35583     746.7144     640.4048   1425.35583     746.7144     640.4048
   1425.34058     748.6034     640.8287   1425.34058     748.6034     640.8287
   1425.32532     749.5614     639.5370   1425.32532     749.5614     639.5370
   1425.31006     751.1252     639.7236   1425.31006     751.1252     639.7236
   1425.29480     751.9175     639.3477   1425.29480     751.9175     639.3477
   1425.27954     753.4113     639.6078   1425.27954     753.4113     639.6078
   1425.26428     753.6472     639.0606   1425.26428     753.6472     639.0606
   1425.24902     754.3906     638.6885   1425.24902     754.3906     638.6885
   1425.23376     755.4119     639.3231   1425.23376     755.4119     639.3231
   1425.21851     756.9171     639.6577   1425.21851     756.9171     639.6577
   1425.20325     756.2227     639.6464   1425.20325     756.2227     639.6464
   1425.18799     756.7261     639.7900   1425.18799     756.7261     639.7900
   1425.17273     758.4413     638.8444   1425.17273     758.4413     638.8444
   1425.15747     760.1106     639.5549   1425.15747     760.1106     639.5549
   1425.14221     761.4938     638.6359   1425.14221     761.4938     638.6359
   1425.12695     761.9675     638.2894   1425.12695     761.9675     638.2894
   1425.11169     762.0767     638.6194   1425.11169     762.0767     638.6194
   1425.09644     761.0241     638.3183   1425.09644     761.0241     638.3183
   1425.08118     762.6885     638.7197   1425.08118     762.6885     638.7197
   1425.06592     764.6381     638.3193   1425.06592     764.6381     638.3193
   1425.05066     763.9095     637.7556   1425.05066     763.9095     637.7556
   1425.03540     763.5217     637.1159   1425.03540     763.5217     637.1159
   1425.02014     764.6557     638.0110   1425.02014     764.6557     638.0110
   1425.00488     766.6735     637.7626   1425.00488     766.6735     637.7626
   1424.98962     766.8010     637.3958   1424.98962     766.8010     637.3958
   1424.97437     766.5136     636.2731   1424.97437     766.5136     636.2731
   1424.95911     766.3195     636.8116   1424.95911     766.3195     636.8116
   1424.94385     767.8635     637.1559   1424.94385     767.8635     637.1559
   1424.92859     766.5865     635.8358   1424.92859     766.5865     635.8358
   1424.91333     767.5238     635.1779   1424.91333     767.5238     635.1779
   1424.89807     768.0424     634.5449   1424.89807     768.0424     634.5449
   1424.88281     768.4301     635.0055   1424.88281     768.4301     635.0055
   1424.86755     769.1260     633.9019   1424.86755     769.1260     633.9019
   1424.85229     767.8713     633.7059   1424.85229     767.8713     633.7059
   1424.83704     769.2566     632.7991   1424.83704     769.2566     632.7991
   1424.82178     767.0534     633.0129   1424.82178     767.0534     633.0129
   1424.80652     769.0578     632.3533   1424.80652     769.0578     632.3533
   1424.79126     768.1497     632.0485   1424.79126     768.1497     632.0485
   1424.77600     768.8923     632.0559   1424.77600     768.8923     632.0559
   1424.76074     769.0512     632.3222   1424.76074     769.0512     632.3222
   1424.74548     770.0364     630.9742   1424.74548     770.0364     630.9742
   1424.73022     771.0756     630.9681   1424.73022     771.0756     630.9681
   1424.71497     768.6386     629.5831   1424.71497     768.6386     629.5831
   1424.69971     769.2026     629.6157   1424.69971     769.2026     629.6157
   1424.68445     770.1840     629.4911   1424.68445     770.1840     629.4911
   1424.66919     770.7366     628.4049   1424.66919     770.7366     628.4049
   1424.65393     768.7473     628.5342   1424.65393     768.7473     628.5342
   1424.63867     768.4442     627.9037   1424.63867     768.4442     627.9037
   1424.62341     768.7486     626.4343   1424.62341     768.7486     626.4343
   1424.60815     768.4064     626.0511   1424.60815     768.4064     626.0511
   1424.59290     769.1238     626.5952   1424.59290     769.1238     626.5952
   1424.57764     768.9169     625.8290   1424.57764     768.9169     625.8290
   1424.56238     769.1308     625.5211   1424.56238     769.1308     625.5211
   1424.54712     769.5653     624.7730   1424.54712     769.5653     624.7730
   1424.53186     768.7716     624.4735   1424.53186     768.7716     624.4735
   1424.51660     767.7975     622.2137   1424.51660     767.7975     622.2137
   1424.50134     768.7595     622.4010   1424.50134     768.7595     622.4010
   1424.48608     768.5352     621.0647   1424.48608     768.5352     621.0647
   1424.47083     768.0321     621.0956   1424.47083     768.0321     621.0956
   1424.45557     766.7113     621.3067   1424.45557     766.7113     621.3067
   1424.44031     766.0927     620.4262   1424.44031     766.0927     620.4262
   1424.42505     767.3057     619.9563   1424.42505     767.3057     619.9563
   1424.40979     766.2170     618.8845   1424.40979     766.2170     618.8845
   1424.39453     767.0271     619.1438   1424.39453     767.0271     619.1438
   1424.37927     766.7728     619.6647   1424.37927     766.7728     619.6647
   1424.36401     766.4459     617.1046   1424.36401     766.4459     617.1046
   1424.34875     765.5458     617.0389   1424.34875     765.5458     617.0389
   1424.33350     765.5240     616.6300   1424.33350     765.5240     616.6300
   1424.31824     764.7260     616.0864   1424.31824     764.7260     616.0864
   1424.30298     765.2999     615.4348   1424.30298     765.2999     615.4348
   1424.28772     763.5788     614.4653   1424.28772     763.5788     614.4653
   1424.27246     763.0004     613.5621   1424.27246     763.0004     613.5621
   1424.25720     763.1044     613.2747   1424.25720     763.1044     613.2747
   1424.24194     764.0016     613.0074   1424.24194     764.0016     613.0074
   1424.22668     762.4681     611.3885   1424.22668     762.4681     611.3885
   1424.21143     761.4018     612.1982   1424.21143     761.4018     612.1982
   1424.19617     762.0995     611.1725   1424.19617     762.0995     611.1725
   1424.18091     760.4858     609.1586   1424.18091     760.4858     609.1586
   1424.16565     761.0359     610.7468   1424.16565     761.0359     610.7468
   1424.15039     759.6263     609.1547   1424.15039     759.6263     609.1547
   1424.13513     760.1810     608.9831   1424.13513     760.1810     608.9831
   1424.11987     760.4813     608.3775   1424.11987     760.4813     608.3775
   1424.10461     759.4790     606.7303   1424.10461     759.4790     606.7303
   1424.08936     758.3657     606.8923   1424.08936     758.3657     606.8923
   1424.07410     757.2074     605.5079   1424.07410     757.2074     605.5079
   1424.05884     757.3754     604.5274   1424.05884     757.3754     604.5274
   1424.04358     758.0828     604.9295   1424.04358     758.0828     604.9295
   1424.02832     757.0240     604.2285   1424.02832     757.0240     604.2285
   1424.01306     756.3579     603.8104   1424.01306     756.3579     603.8104
   1423.99780     756.5339     603.1195   1423.99780     756.5339     603.1195
   1423.98254     756.4772     601.9706   1423.98254     756.4772     601.9706
   1423.96729     755.7494     602.1335   1423.96729     755.7494     602.1335
   1423.95203     753.8314     601.1121   1423.95203     753.8314     601.1121
   1423.93677     753.8273     599.4706   1423.93677     753.8273     599.4706
   1423.92151     753.8985     600.6891   1423.92151     753.8985     600.6891
   1423.90625     752.7899     599.3220   1423.90625     752.7899     599.3220
   1423.89099     752.3351     598.5426   1423.89099     752.3351     598.5426
   1423.87573     752.1593     598.6601   1423.87573     752.1593     598.6601
   1423.86047     752.0551     598.0228   1423.86047     752.0551     598.0228
   1423.84521     750.3878     597.1599   1423.84521     750.3878     597.1599
   1423.82996     750.0695     596.3116   1423.82996     750.0695     596.3116
   1423.81470     749.9529     595.3923   1423.81470     749.9529     595.3923
   1423.79944     749.3654     594.8672   1423.79944     749.3654     594.8672
   1423.78418     748.2342     594.5681   1423.78418     748.2342     594.5681
   1423.76892     749.1353     593.8456   1423.76892     749.1353     593.8456
   1423.75366     748.9147     591.9338   1423.75366     748.9147     591.9338
   1423.73840     746.7609     592.1254   1423.73840     746.7609     592.1254
   1423.72314     747.5864     591.6844   1423.72314     747.5864     591.6844
   1423.70789     747.4085     591.4687   1423.70789     747.4085     591.4687
   1423.69263     746.1349     590.3727   1423.69263     746.1349     590.3727
   1423.67737     745.2921     590.8130   1423.67737     745.2921     590.8130
   1423.66211     745.7023     589.5737   1423.66211     745.7023     589.5737
   1423.64685     746.0008     588.3339   1423.64685     746.0008     588.3339
   1423.63159     744.9573     587.2766   1423.63159     744.9573     587.2766
   1423.61633     743.0304     586.8334   1423.61633     743.0304     586.8334
   1423.60107     743.3495     586.2548   1423.60107     743.3495     586.2548
   1423.58582     742.6245     586.0295   1423.58582     742.6245     586.0295
   1423.57056     741.9604     585.2574   1423.57056     741.9604     585.2574
   1423.55530     741.3871     584.6189   1423.55530     741.3871     584.6189
   1423.54004     741.3481     584.1573   1423.54004     741.3481     584.1573
   1423.52478     741.7827     583.8463   1423.52478     741.7827     583.8463
   1423.50952     741.3703     582.6788   1423.50952     741.3703     582.6788
   1423.49426     740.2943     583.0172   1423.49426     740.2943     583.0172
   1423.47900     739.8053     581.6074   1423.47900     739.8053     581.6074
   1423.46375     737.6750     580.4493   1423.46375     737.6750     580.4493
   1423.44849     739.0358     580.9849   1423.44849     739.0358     580.9849
   1423.43323     737.5902     579.5082   1423.43323     737.5902     579.5082
   1423.41797     738.1326     578.7870   1423.41797     738.1326     578.7870
   1423.40271     738.4932     578.5692   1423.40271     738.4932     578.5692
   1423.38745     737.4614     578.6855   1423.38745     737.4614     578.6855
   1423.37219     738.0342     577.5099   1423.37219     738.0342     577.5099
   1423.35693     737.3437     576.4449   1423.35693     737.3437     576.4449
   1423.34167     736.4291     575.4196   1423.34167     736.4291     575.4196
   1423.32642     735.0477     575.4810   1423.32642     735.0477     575.4810
   1423.31116     736.1727     574.1221   1423.31116     736.1727     574.1221
   1423.29590     734.9164     573.0477   1423.29590     734.9164     573.0477
   1423.28064     734.9891     572.9527   1423.28064     734.9891     572.9527
   1423.26538     734.5826     573.2985   1423.26538     734.5826     573.2985
   1423.25012     734.0225     571.8792   1423.25012     734.0225     571.8792
   1423.23486     734.6209     571.2597   1423.23486     734.6209     571.2597
   1423.21960     734.3242     570.0291   1423.21960     734.3242     570.0291
   1423.20435     731.6914     569.3201   1423.20435     731.6914     569.3201
   1423.18909     732.7670     568.9437   1423.18909     732.7670     568.9437
   1423.17383     732.8087     569.0328   1423.17383     732.8087     569.0328
   1423.15857     731.0666     567.7500   1423.15857     731.0666     567.7500
   1423.14331     732.0810     567.5819   1423.14331     732.0810     567.5819
   1423.12805     730.3783     566.9216   1423.12805     730.3783     566.9216
   1423.11279     732.5138     565.4193   1423.11279     732.5138     565.4193
   1423.09753     729.9957     565.2495   1423.09753     729.9957     565.2495
   1423.08228     730.0173     563.8233   1423.08228     730.0173     563.8233
   1423.06702     729.5520     562.9856   1423.06702     729.5520     562.9856
   1423.05176     729.6775     563.0836   1423.05176     729.6775     563.0836
   1423.03650     728.7475     562.6578   1423.03650     728.7475     562.6578
   1423.02124     729.0726     561.4883   1423.02124     729.0726     561.4883
   1423.00598     728.2432     561.0605   1423.00598     728.2432     561.0605
   1422.99072     728.6990     559.9638   1422.99072     728.6990     559.9638
   1422.97546     728.3990     560.0731   1422.97546     728.3990     560.0731
   1422.96021     728.0806     558.8566   1422.96021     728.0806     558.8566
   1422.94495     727.1252     558.2025   1422.94495     727.1252     558.2025
   1422.92969     728.1916     558.8383   1422.92969     728.1916     558.8383
   1422.91443     726.4384     556.6288   1422.91443     726.4384     556.6288
   1422.89917     727.0204     555.3749   1422.89917     727.0204     555.3749
   1422.88391     727.1105     555.1321   1422.88391     727.1105     555.1321
   1422.86865     725.7025     554.6816   1422.86865     725.7025     554.6816
   1422.85339     726.7030     553.3046   1422.85339     726.7030     553.3046
   1422.83813     725.6863     553.3410   1422.83813     725.6863     553.3410
   1422.82288     726.0063     553.0892   1422.82288     726.0063     553.0892
   1422.80762     725.7984     552.6828   1422.80762     725.7984     552.6828
   1422.79236     724.8403     551.0599   1422.79236     724.8403     551.0599
   1422.77710     724.7040     550.6793   1422.77710     724.7040     550.6793
   1422.76184     725.3885     549.6953   1422.76184     725.3885     549.6953
   1422.74658     723.5204     549.4114   1422.74658     723.5204     549.4114
   1422.73132     724.1785     547.0108   1422.73132     724.1785     547.0108
   1422.71606     724.8784     547.8344   1422.71606     724.8784     547.8344
   1422.70081     724.4472     547.7974   1422.70081     724.4472     547.7974
   1422.68555     723.6271     546.3452   1422.68555     723.6271     546.3452
   1422.67029     724.0742     545.6561   1422.67029     724.0742     545.6561
   1422.65503     724.1637     544.2695   1422.65503     724.1637     544.2695
   1422.63977     724.1412     543.5526   1422.63977     724.1412     543.5526
   1422.62451     722.9382     543.1071   1422.62451     722.9382     543.1071
   1422.60925     723.5538     542.4285   1422.60925     723.5538     542.4285
   1422.59399     723.3597     541.7057   1422.59399     723.3597     541.7057
   1422.57874     722.6097     540.7255   1422.57874     722.6097     540.7255
   1422.56348     723.2651     540.0226   1422.56348     723.2651     540.0226
   1422.54822     723.0792     539.9326   1422.54822     723.0792     539.9326
   1422.53296     722.9144     538.9254   1422.53296     722.9144     538.9254
   1422.51770     721.9255     537.5611   1422.51770     721.9255     537.5611
   1422.50244     722.6094     536.9385   1422.50244     722.6094     536.9385
   1422.48718     720.4534     536.4892   1422.48718     720.4534     536.4892
   1422.47192     722.1680     535.5300   1422.47192     722.1680     535.5300
   1422.45667     722.0156     535.3281   1422.45667     722.0156     535.3281
   1422.44141     721.0958     534.9813   1422.44141     721.0958     534.9813
   1422.42615     720.7164     533.8314   1422.42615     720.7164     533.8314
   1422.41089     721.0422     532.0884   1422.41089     721.0422     532.0884
   1422.39563     721.0519     531.7607   1422.39563     721.0519     531.7607
   1422.38037     721.2604     530.1945   1422.38037     721.2604     530.1945
   1422.36511     720.1904     529.9469   1422.36511     720.1904     529.9469
   1422.34985     720.4821     529.2412   1422.34985     720.4821     529.2412
   1422.33459     721.6901     528.7316   1422.33459     721.6901     528.7316
   1422.31934     722.2831     527.6677   1422.31934     722.2831     527.6677
   1422.30408     719.8561     525.9415   1422.30408     719.8561     525.9415
   1422.28882     720.7896     525.8220   1422.28882     720.7896     525.8220
   1422.27356     720.1912     524.9260   1422.27356     720.1912     524.9260
   1422.25830     721.4069     523.9841   1422.25830     721.4069     523.9841
   1422.24304     721.8896     524.0325   1422.24304     721.8896     524.0325
   1422.22778     720.3897     522.4861   1422.22778     720.3897     522.4861
   1422.21252     719.5917     521.5084   1422.21252     719.5917     521.5084
   1422.19727     719.9308     521.3786   1422.19727     719.9308     521.3786
   1422.18201     719.9547     520.3484   1422.18201     719.9547     520.3484
   1422.16675     719.9095     518.9620   1422.16675     719.9095     518.9620
   1422.15149     720.1415     518.1226   1422.15149     720.1415     518.1226
   1422.13623     720.8208     517.8259   1422.13623     720.8208     517.8259
   1422.12097     720.4836     516.9288   1422.12097     720.4836     516.9288
   1422.10571     720.3228     516.8389   1422.10571     720.3228     516.8389
   1422.09045     720.5204     515.6898   1422.09045     720.5204     515.6898
   1422.07520     720.0858     514.4636   1422.07520     720.0858     514.4636
   1422.05994     718.8834     513.7709   1422.05994     718.8834     513.7709
   1422.04468     719.5411     513.7057   1422.04468     719.5411     513.7057
   1422.02942     718.8860     511.9783   1422.02942     718.8860     511.9783
   1422.01416     718.9113     511.1079   1422.01416     718.9113     511.1079
   1421.99890     719.2770     510.8186   1421.99890     719.2770     510.8186
   1421.98364     719.1459     510.0553   1421.98364     719.1459     510.0553
   1421.96838     720.0341     509.1602   1421.96838     720.0341     509.1602
   1421.95312     719.6606     507.9101   1421.95312     719.6606     507.9101
   1421.93787     719.5343     507.8122   1421.93787     719.5343     507.8122
   1421.92261     718.2676     506.0296   1421.92261     718.2676     506.0296
   1421.90735     718.8215     505.7136   1421.90735     718.8215     505.7136
   1421.89209     720.2513     504.7175   1421.89209     720.2513     504.7175
   1421.87683     718.8386     503.7311   1421.87683     718.8386     503.7311
   1421.86157     719.2774     503.8670   1421.86157     719.2774     503.8670
   1421.84631     720.2765     502.5169   1421.84631     720.2765     502.5169
   1421.83105     719.2271     501.0355   1421.83105     719.2271     501.0355
   1421.81580     718.7217     500.8423   1421.81580     718.7217     500.8423
   1421.80054     718.8068     499.6542   1421.80054     718.8068     499.6542
   1421.78528     718.5017     499.4149   1421.78528     718.5017     499.4149
   1421.77002     718.7962     498.4459   1421.77002     718.7962     498.4459
   1421.75476     717.3892     497.5048   1421.75476     717.3892     497.5048
   1421.73950     718.1638     497.0876   1421.73950     718.1638     497.0876
   1421.72424     718.4866     495.3445   1421.72424     718.4866     495.3445
   1421.70898     718.2964     494.2478   1421.70898     718.2964     494.2478
   1421.69373     718.2438     493.4196   1421.69373     718.2438     493.4196
   1421.67847     718.5446     492.4743   1421.67847     718.5446     492.4743
   1421.66321     718.5853     491.3113   1421.66321     718.5853     491.3113
   1421.64795     717.1810     490.5327   1421.64795     717.1810     490.5327
   1421.63269     718.6105     489.7487   1421.63269     718.6105     489.7487
   1421.61743     718.1599     488.8863   1421.61743     718.1599     488.8863
   1421.60217     716.9776     487.7015   1421.60217     716.9776     487.7015
   1421.58691     717.9133     487.4571   1421.58691     717.9133     487.4571
   1421.57166     717.0310     486.5720   1421.57166     717.0310     486.5720
   1421.55640     716.8157     485.7048   1421.55640     716.8157     485.7048
   1421.54114     717.6675     484.5286   1421.54114     717.6675     484.5286
   1421.52588     717.6748     484.2134   1421.52588     717.6748     484.2134
   1421.51062     717.6258     483.0382   1421.51062     717.6258     483.0382
   1421.49536     716.3314     482.4967   1421.49536     716.3314     482.4967
   1421.48010     716.4373     481.0852   1421.48010     716.4373     481.0852
   1421.46484     717.1527     480.0980   1421.46484     717.1527     480.0980
   1421.44958     717.1994     479.3509   1421.44958     717.1994     479.3509
   1421.43433     716.4813     478.7636   1421.43433     716.4813     478.7636
   1421.41907     716.7576     478.0200   1421.41907     716.7576     478.0200
   1421.40381     716.4801     476.4736   1421.40381     716.4801     476.4736
   1421.38855     715.6257     475.1264   1421.38855     715.6257     475.1264
   1421.37329     716.0477     475.0777   1421.37329     716.0477     475.0777
   1421.35803     715.7694     474.3581   1421.35803     715.7694     474.3581
   1421.34277     716.0341     472.8924   1421.34277     716.0341     472.8924
   1421.32751     714.9974     471.8845   1421.32751     714.9974     471.8845
   1421.31226     714.7540     471.9968   1421.31226     714.7540     471.9968
   1421.29700     714.0853     469.8431   1421.29700     714.0853     469.8431
   1421.28174     715.2526     469.1758   1421.28174     715.2526     469.1758
   1421.26648     713.8113     468.4407   1421.26648     713.8113     468.4407
   1421.25122     716.3685     467.7121   1421.25122     716.3685     467.7121
   1421.23596     714.7011     466.7594   1421.23596     714.7011     466.7594
   1421.22070     714.7741     465.2952   1421.22070     714.7741     465.2952
   1421.20544     713.4490     465.5972   1421.20544     713.4490     465.5972
   1421.19019     713.2247     464.2441   1421.19019     713.2247     464.2441
   1421.17493     713.6564     463.5596   1421.17493     713.6564     463.5596
   1421.15967     714.4191     462.6102   1421.15967     714.4191     462.6102
   1421.14441     713.5312     461.9154   1421.14441     713.5312     461.9154
   1421.12915     713.1898     460.4617   1421.12915     713.1898     460.4617
   1421.11389     712.7223     460.0847   1421.11389     712.7223     460.0847
   1421.09863     713.8943     458.5374   1421.09863     713.8943     458.5374
   1421.08337     713.6661     456.8853   1421.08337     713.6661     456.8853
   1421.06812     711.6346     457.1761   1421.06812     711.6346     457.1761
   1421.05286     713.0045     456.9252   1421.05286     713.0045     456.9252
   1421.03760     712.4622     455.4548   1421.03760     712.4622     455.4548
   1421.02234     711.5576     454.9282   1421.02234     711.5576     454.9282
   1421.00708     711.3427     453.9697   1421.00708     711.3427     453.9697
   1420.99182     711.6478     453.1612   1420.99182     711.6478     453.1612
   1420.97656     712.4765     452.2997   1420.97656     712.4765     452.2997
   1420.96130     711.4449     451.4646   1420.96130     711.4449     451.4646
   1420.94604     710.4840     450.4462   1420.94604     710.4840     450.4462
   1420.93079     711.7517     449.4904   1420.93079     711.7517     449.4904
   1420.91553     712.2330     448.9172   1420.91553     712.2330     448.9172
   1420.90027     711.1612     448.3248   1420.90027     711.1612     448.3248
   1420.88501     712.5632     447.4991   1420.88501     712.5632     447.4991
   1420.86975     711.1517     446.8653   1420.86975     711.1517     446.8653
   1420.85449     710.6604     445.2676   1420.85449     710.6604     445.2676
   1420.83923     710.6992     444.5038   1420.83923     710.6992     444.5038
   1420.82397     710.3741     444.3170   1420.82397     710.3741     444.3170
   1420.80872     710.1986     443.8839   1420.80872     710.1986     443.8839
   1420.79346     711.3206     442.3936   1420.79346     711.3206     442.3936
   1420.77820     709.9718     441.9269   1420.77820     709.9718     441.9269
   1420.76294     710.8849     441.0716   1420.76294     710.8849     441.0716
   1420.74768     711.4657     441.4659   1420.74768     711.4657     441.4659
   1420.73242     711.3108     439.9315   1420.73242     711.3108     439.9315
   1420.71716     711.8061     439.4988   1420.71716     711.8061     439.4988
   1420.70190     710.1321     438.8404   1420.70190     710.1321     438.8404
   1420.68665     710.9274     438.6003   1420.68665     710.9274     438.6003
   1420.67139     710.7991     437.8194   1420.67139     710.7991     437.8194
   1420.65613     708.9331     437.2377   1420.65613     708.9331     437.2377
   1420.64087     710.2863     436.3270   1420.64087     710.2863     436.3270
   1420.62561     711.8945     435.9348   1420.62561     711.8945     435.9348
   1420.61035     713.3124     435.3097   1420.61035     713.3124     435.3097
   1420.59509     712.9589     436.2062   1420.59509     712.9589     436.2062
   1420.57983     715.3647     434.7629   1420.57983     715.3647     434.7629
   1420.56458     717.0320     436.4296   1420.56458     717.0320     436.4296
   1420.54932     719.5120     437.0619   1420.54932     719.5120     437.0619
   1420.53406     722.0891     437.6531   1420.53406     722.0891     437.6531
   1420.51880     725.9276     440.3780   1420.51880     725.9276     440.3780
   1420.50354     731.4665     442.2672   1420.50354     731.4665     442.2672
   1420.48828     739.7156     445.7956   1420.48828     739.7156     445.7956
   1420.47302     751.7921     453.3424   1420.47302     751.7921     453.3424
   1420.45776     773.0598     465.7101   1420.45776     773.0598     465.7101
   1420.44250     799.0719     479.7718   1420.44250     799.0719     479.7718
   1420.42725     827.2864     495.2773   1420.42725     827.2864     495.2773
   1420.41199     875.8750     521.9440   1420.41199     875.8750     521.9440
   1420.39673     988.1827     585.4678   1420.39673     988.1827     585.4678
   1420.38147    1300.9242     766.5378   1420.38147    1300.9242     766.5378
   1420.36621    1779.7491    1042.4393   1420.36621    1779.7491    1042.4393
   1420.35095    2119.1252    1240.0117   1420.35095    2119.1252    1240.0117
   1420.33569    2355.0452    1377.0544   1420.33569    2355.0452    1377.0544
   1420.32043    2552.8364    1487.9827   1420.32043    2552.8364    1487.9827
   1420.30518    2708.6306    1576.5559   1420.30518    2708.6306    1576.5559
   1420.28992    2794.7046    1622.0062   1420.28992    2794.7046    1622.0062
   1420.27466    2669.2456    1547.2766   1420.27466    2669.2456    1547.2766
   1420.25940    2448.8657    1419.8170   1420.25940    2448.8657    1419.8170
   1420.24414    1735.9042    1006.4073   1420.24414    1735.9042    1006.4073
   1420.22888    1144.4031     668.7623   1420.22888    1144.4031     668.7623
   1420.21362     897.0709     526.5814   1420.21362     897.0709     526.5814
   1420.19836     799.7849     470.2666   1420.19836     799.7849     470.2666
   1420.18311     755.5405     444.1585   1420.18311     755.5405     444.1585
   1420.16785     735.1860     431.1890   1420.16785     735.1860     431.1890
   1420.15259     724.1385     425.1890   1420.15259     724.1385     425.1890
   1420.13733     717.7751     421.0988   1420.13733     717.7751     421.0988
   1420.12207     713.7775     417.8401   1420.12207     713.7775     417.8401
   1420.10681     710.2154     415.3082   1420.10681     710.2154     415.3082
   1420.09155     707.0338     414.0593   1420.09155     707.0338     414.0593
   1420.07629     706.6962     412.3148   1420.07629     706.6962     412.3148
   1420.06104     703.0356     410.2071   1420.06104     703.0356     410.2071
   1420.04578     701.9397     409.4567   1420.04578     701.9397     409.4567
   1420.03052     701.3652     408.3852   1420.03052     701.3652     408.3852
   1420.01526     699.8198     407.5296   1420.01526     699.8198     407.5296
   1420.00000     700.9153     408.1831   1420.00000     700.9153     408.1831
   1419.98474     702.0110     408.8366   1419.98474     702.0110     408.8366
   1419.96948     701.9126     405.7458   1419.96948     701.9126     405.7458
   1419.95422     699.4440     403.9151   1419.95422     699.4440     403.9151
   1419.93896     699.5330     403.1486   1419.93896     699.5330     403.1486
   1419.92371     698.6972     402.6164   1419.92371     698.6972     402.6164
   1419.90845     698.7546     401.8570   1419.90845     698.7546     401.8570
   1419.89319     697.3336     401.1733   1419.89319     697.3336     401.1733
   1419.87793     698.3397     401.0203   1419.87793     698.3397     401.0203
   1419.86267     697.8617     400.7503   1419.86267     697.8617     400.7503
   1419.84741     697.3521     400.5346   1419.84741     697.3521     400.5346
   1419.83215     695.9583     399.4079   1419.83215     695.9583     399.4079
   1419.81689     697.4335     399.2650   1419.81689     697.4335     399.2650
   1419.80164     697.1934     398.0837   1419.80164     697.1934     398.0837
   1419.78638     696.6032     398.1318   1419.78638     696.6032     398.1318
   1419.77112     695.7166     397.9485   1419.77112     695.7166     397.9485
   1419.75586     696.0914     396.7165   1419.75586     696.0914     396.7165
   1419.74060     696.3691     396.8220   1419.74060     696.3691     396.8220
   1419.72534     696.6948     396.1704   1419.72534     696.6948     396.1704
   1419.71008     697.2711     395.9774   1419.71008     697.2711     395.9774
   1419.69482     695.8683     395.2770   1419.69482     695.8683     395.2770
   1419.67957     695.3649     394.5480   1419.67957     695.3649     394.5480
   1419.66431     697.2516     395.1444   1419.66431     697.2516     395.1444
   1419.64905     697.0266     394.4641   1419.64905     697.0266     394.4641
   1419.63379     695.7994     393.7063   1419.63379     695.7994     393.7063
   1419.61853     696.6584     393.0341   1419.61853     696.6584     393.0341
   1419.60327     696.4349     393.5386   1419.60327     696.4349     393.5386
   1419.58801     696.4196     392.8055   1419.58801     696.4196     392.8055
   1419.57275     696.1732     393.3423   1419.57275     696.1732     393.3423
   1419.55750     698.2482     393.1073   1419.55750     698.2482     393.1073
   1419.54224     696.6604     392.6853   1419.54224     696.6604     392.6853
   1419.52698     697.6402     392.4277   1419.52698     697.6402     392.4277
   1419.51172     697.6245     392.1449   1419.51172     697.6245     392.1449
   1419.49646     698.3710     391.9868   1419.49646     698.3710     391.9868
   1419.48120     698.2498     391.9362   1419.48120     698.2498     391.9362
   1419.46594     697.4009     391.4198   1419.46594     697.4009     391.4198
   1419.45068     698.4909     390.7643   1419.45068     698.4909     390.7643
   1419.43542     698.4092     390.8593   1419.43542     698.4092     390.8593
   1419.42017     698.3674     391.4156   1419.42017     698.3674     391.4156
   1419.40491     698.7791     390.3033   1419.40491     698.7791     390.3033
   1419.38965     699.8688     390.1734   1419.38965     699.8688     390.1734
   1419.37439     699.1147     390.7140   1419.37439     699.1147     390.7140
   1419.35913     699.8282     389.8855   1419.35913     699.8282     389.8855
   1419.34387     699.6873     390.7480   1419.34387     699.6873     390.7480
   1419.32861     699.4521     389.7688   1419.32861     699.4521     389.7688
   1419.31335     699.9050     389.7140   1419.31335     699.9050     389.7140
   1419.29810     701.9479     389.7143   1419.29810     701.9479     389.7143
   1419.28284     701.3446     388.7865   1419.28284     701.3446     388.7865
   1419.26758     702.1458     389.4334   1419.26758     702.1458     389.4334
   1419.25232     701.8062     389.0490   1419.25232     701.8062     389.0490
   1419.23706     701.0256     388.7170   1419.23706     701.0256     388.7170
   1419.22180     702.5553     389.6595   1419.22180     702.5553     389.6595
   1419.20654     703.3745     389.3455   1419.20654     703.3745     389.3455
   1419.19128     702.4874     388.4102   1419.19128     702.4874     388.4102
   1419.17603     701.9424     389.3234   1419.17603     701.9424     389.3234
   1419.16077     703.2402     388.9811   1419.16077     703.2402     388.9811
   1419.14551     703.3100     389.4723   1419.14551     703.3100     389.4723
   1419.13025     703.9214     389.1527   1419.13025     703.9214     389.1527
   1419.11499     704.6411     389.4830   1419.11499     704.6411     389.4830
   1419.09973     704.2864     389.3385   1419.09973     704.2864     389.3385
   1419.08447     705.1535     388.6480   1419.08447     705.1535     388.6480
   1419.06921     705.7979     389.4162   1419.06921     705.7979     389.4162
   1419.05396     705.6993     388.8620   1419.05396     705.6993     388.8620
   1419.03870     707.5283     389.8206   1419.03870     707.5283     389.8206
   1419.02344     706.5579     389.4294   1419.02344     706.5579     389.4294
   1419.00818     707.1073     389.7918   1419.00818     707.1073     389.7918
   1418.99292     708.2891     389.8495   1418.99292     708.2891     389.8495
   1418.97766     706.8796     389.7406   1418.97766     706.8796     389.7406
   1418.96240     708.1877     390.0518   1418.96240     708.1877     390.0518
   1418.94714     708.3151     389.8813   1418.94714     708.3151     389.8813
   1418.93188     709.7173     389.7697   1418.93188     709.7173     389.7697
   1418.91663     709.6648     390.5250   1418.91663     709.6648     390.5250
   1418.90137     710.2489     390.0964   1418.90137     710.2489     390.0964
   1418.88611     711.1923     390.6106   1418.88611     711.1923     390.6106
   1418.87085     710.4065     390.6230   1418.87085     710.4065     390.6230
   1418.85559     711.1094     391.6944   1418.85559     711.1094     391.6944
   1418.84033     711.0004     391.2301   1418.84033     711.0004     391.2301
   1418.82507     713.1408     391.3252   1418.82507     713.1408     391.3252
   1418.80981     713.4896     391.6524   1418.80981     713.4896     391.6524
   1418.79456     713.4003     392.6455   1418.79456     713.4003     392.6455
   1418.77930     714.4724     391.9977   1418.77930     714.4724     391.9977
   1418.76404     714.1936     392.4023   1418.76404     714.1936     392.4023
   1418.74878     715.5482     392.4590   1418.74878     715.5482     392.4590
   1418.73352     715.8194     393.1111   1418.73352     715.8194     393.1111
   1418.71826     716.2318     393.2125   1418.71826     716.2318     393.2125
   1418.70300     717.5382     393.9695   1418.70300     717.5382     393.9695
   1418.68774     717.8725     394.3020   1418.68774     717.8725     394.3020
   1418.67249     717.2294     394.1878   1418.67249     717.2294     394.1878
   1418.65723     719.5197     394.8473   1418.65723     719.5197     394.8473
   1418.64197     719.0236     394.9104   1418.64197     719.0236     394.9104
   1418.62671     720.3884     395.0063   1418.62671     720.3884     395.0063
   1418.61145     719.9923     395.5863   1418.61145     719.9923     395.5863
   1418.59619     721.6514     396.5059   1418.59619     721.6514     396.5059
   1418.58093     721.4869     396.1314   1418.58093     721.4869     396.1314
   1418.56567     721.0215     396.7609   1418.56567     721.0215     396.7609
   1418.55042     722.6107     397.1555   1418.55042     722.6107     397.1555
   1418.53516     723.5758     398.0040   1418.53516     723.5758     398.0040
   1418.51990     724.2850     397.7397   1418.51990     724.2850     397.7397
   1418.50464     724.3691     398.1096   1418.50464     724.3691     398.1096
   1418.48938     725.7205     398.5659   1418.48938     725.7205     398.5659
   1418.47412     726.4883     399.4068   1418.47412     726.4883     399.4068
   1418.45886     726.8373     399.8787   1418.45886     726.8373     399.8787
   1418.44360     728.5389     400.1848   1418.44360     728.5389     400.1848
   1418.42834     728.2556     400.3767   1418.42834     728.2556     400.3767
   1418.41309     727.9821     400.7172   1418.41309     727.9821     400.7172
   1418.39783     729.6589     401.7585   1418.39783     729.6589     401.7585
   1418.38257     729.3752     401.6138   1418.38257     729.3752     401.6138
   1418.36731     732.0215     401.7488   1418.36731     732.0215     401.7488
   1418.35205     731.6513     402.9634   1418.35205     731.6513     402.9634
   1418.33679     732.9164     403.8699   1418.33679     732.9164     403.8699
   1418.32153     732.4903     404.9558   1418.32153     732.4903     404.9558
   1418.30627     734.1961     403.6893   1418.30627     734.1961     403.6893
   1418.29102     735.1587     405.2524   1418.29102     735.1587     405.2524
   1418.27576     735.6159     405.6223   1418.27576     735.6159     405.6223
   1418.26050     736.9029     406.4243   1418.26050     736.9029     406.4243
   1418.24524     737.7698     407.3838   1418.24524     737.7698     407.3838
   1418.22998     737.7735     407.8095   1418.22998     737.7735     407.8095
   1418.21472     737.9184     408.1028   1418.21472     737.9184     408.1028
   1418.19946     738.7697     408.2131   1418.19946     738.7697     408.2131
   1418.18420     740.8768     408.9526   1418.18420     740.8768     408.9526
   1418.16895     740.9924     410.3658   1418.16895     740.9924     410.3658
   1418.15369     740.8608     410.7455   1418.15369     740.8608     410.7455
   1418.13843     742.2522     411.9347   1418.13843     742.2522     411.9347
   1418.12317     742.8979     412.4483   1418.12317     742.8979     412.4483
   1418.10791     744.4940     413.0279   1418.10791     744.4940     413.0279
   1418.09265     744.9442     413.2624   1418.09265     744.9442     413.2624
   1418.07739     745.4872     414.4401   1418.07739     745.4872     414.4401
   1418.06213     746.1708     415.0602   1418.06213     746.1708     415.0602
   1418.04688     747.5469     416.1866   1418.04688     747.5469     416.1866
   1418.03162     748.7558     416.8831   1418.03162     748.7558     416.8831
   1418.01636     747.9877     417.3440   1418.01636     747.9877     417.3440
   1418.00110     748.7348     418.1965   1418.00110     748.7348     418.1965
   1417.98584     749.9250     418.4513   1417.98584     749.9250     418.4513
   1417.97058     751.0479     419.3993   1417.97058     751.0479     419.3993
   1417.95532     750.9484     420.2592   1417.95532     750.9484     420.2592
   1417.94006     753.1805     420.4888   1417.94006     753.1805     420.4888
   1417.92480     754.3246     421.5728   1417.92480     754.3246     421.5728
   1417.90955     752.0389     422.9401   1417.90955     752.0389     422.9401
   1417.89429     755.9965     423.5760   1417.89429     755.9965     423.5760
   1417.87903     756.0414     424.7538   1417.87903     756.0414     424.7538
   1417.86377     756.2538     426.0963   1417.86377     756.2538     426.0963
   1417.84851     756.9012     426.4021   1417.84851     756.9012     426.4021
   1417.83325     759.7146     426.7420   1417.83325     759.7146     426.7420
   1417.81799     759.2496     427.9362   1417.81799     759.2496     427.9362
   1417.80273     760.2432     428.6369   1417.80273     760.2432     428.6369
   1417.78748     761.5626     429.2058   1417.78748     761.5626     429.2058
   1417.77222     761.7195     430.1848   1417.77222     761.7195     430.1848
   1417.75696     762.3486     431.0010   1417.75696     762.3486     431.0010
   1417.74170     763.4358     432.2351   1417.74170     763.4358     432.2351
   1417.72644     763.7134     433.5589   1417.72644     763.7134     433.5589
   1417.71118     765.0917     433.4631   1417.71118     765.0917     433.4631
   1417.69592     766.9609     434.8224   1417.69592     766.9609     434.8224
   1417.68066     766.8018     435.9666   1417.68066     766.8018     435.9666
   1417.66541     767.6345     436.3961   1417.66541     767.6345     436.3961
   1417.65015     768.8941     437.9606   1417.65015     768.8941     437.9606
   1417.63489     770.4880     438.7006   1417.63489     770.4880     438.7006
   1417.61963     770.7915     439.4116   1417.61963     770.7915     439.4116
   1417.60437     771.3097     440.2256   1417.60437     771.3097     440.2256
   1417.58911     771.3553     440.9376   1417.58911     771.3553     440.9376
   1417.57385     772.6675     442.8097   1417.57385     772.6675     442.8097
   1417.55859     772.6727     443.2780   1417.55859     772.6727     443.2780
   1417.54333     774.3633     444.0490   1417.54333     774.3633     444.0490
   1417.52808     776.5814     444.7358   1417.52808     776.5814     444.7358
   1417.51282     773.4338     445.8125   1417.51282     773.4338     445.8125
   1417.49756     776.9694     447.3528   1417.49756     776.9694     447.3528
   1417.48230     776.6069     448.5795   1417.48230     776.6069     448.5795
   1417.46704     779.3164     449.7221   1417.46704     779.3164     449.7221
   1417.45178     778.6153     449.7198   1417.45178     778.6153     449.7198
   1417.43652     780.0429     451.2627   1417.43652     780.0429     451.2627
   1417.42126     778.5781     452.6009   1417.42126     778.5781     452.6009
   1417.40601     779.5495     453.4658   1417.40601     779.5495     453.4658
   1417.39075     781.2560     454.1301   1417.39075     781.2560     454.1301
   1417.37549     781.9620     455.4722   1417.37549     781.9620     455.4722
   1417.36023     783.0017     456.6722   1417.36023     783.0017     456.6722
   1417.34497     783.7352     457.4977   1417.34497     783.7352     457.4977
   1417.32971     783.8730     459.2620   1417.32971     783.8730     459.2620
   1417.31445     785.1086     459.5966   1417.31445     785.1086     459.5966
   1417.29919     785.7603     460.8541   1417.29919     785.7603     460.8541
   1417.28394     786.2356     461.4991   1417.28394     786.2356     461.4991
   1417.26868     786.2354     462.4901   1417.26868     786.2354     462.4901
   1417.25342     786.6515     463.6541   1417.25342     786.6515     463.6541
   1417.23816     788.5457     464.8355   1417.23816     788.5457     464.8355
   1417.22290     789.4850     466.0792   1417.22290     789.4850     466.0792
   1417.20764     789.9294     467.2722   1417.20764     789.9294     467.2722
   1417.19238     790.2697     468.1021   1417.19238     790.2697     468.1021
   1417.17712     792.5072     468.6480   1417.17712     792.5072     468.6480
   1417.16187     792.2010     470.1689   1417.16187     792.2010     470.1689
   1417.14661     792.2475     471.1880   1417.14661     792.2475     471.1880
   1417.13135     792.3853     471.9885   1417.13135     792.3853     471.9885
   1417.11609     793.1740     472.3979   1417.11609     793.1740     472.3979
   1417.10083     794.3292     473.6261   1417.10083     794.3292     473.6261
   1417.08557     792.9149     474.6534   1417.08557     792.9149     474.6534
   1417.07031     796.0462     475.9188   1417.07031     796.0462     475.9188
   1417.05505     795.9194     476.9145   1417.05505     795.9194     476.9145
   1417.03979     796.1351     478.5309   1417.03979     796.1351     478.5309
   1417.02454     797.6295     478.7341   1417.02454     797.6295     478.7341
   1417.00928     798.4935     480.0815   1417.00928     798.4935     480.0815
   1416.99402     797.2502     481.4969   1416.99402     797.2502     481.4969
   1416.97876     798.2193     481.5727   1416.97876     798.2193     481.5727
   1416.96350     798.8217     483.7310   1416.96350     798.8217     483.7310
   1416.94824     800.0217     483.9595   1416.94824     800.0217     483.9595
   1416.93298     798.8939     484.6431   1416.93298     798.8939     484.6431
   1416.91772     799.0807     486.9719   1416.91772     799.0807     486.9719
   1416.90247     800.4073     486.5984   1416.90247     800.4073     486.5984
   1416.88721     800.4196     487.9949   1416.88721     800.4196     487.9949
   1416.87195     801.2249     489.0703   1416.87195     801.2249     489.0703
   1416.85669     800.9048     489.5581   1416.85669     800.9048     489.5581
   1416.84143     801.7903     490.9587   1416.84143     801.7903     490.9587
   1416.82617     800.9314     491.1235   1416.82617     800.9314     491.1235
   1416.81091     802.4069     492.1890   1416.81091     802.4069     492.1890
   1416.79565     801.8517     493.3799   1416.79565     801.8517     493.3799
   1416.78040     803.2545     493.1527   1416.78040     803.2545     493.1527
   1416.76514     802.2297     494.3803   1416.76514     802.2297     494.3803
   1416.74988     802.4965     495.9883   1416.74988     802.4965     495.9883
   1416.73462     803.5736     496.5625   1416.73462     803.5736     496.5625
   1416.71936     804.0416     496.9209   1416.71936     804.0416     496.9209
   1416.70410     802.8633     497.7000   1416.70410     802.8633     497.7000
   1416.68884     803.4810     498.7051   1416.68884     803.4810     498.7051
   1416.67358     803.7541     499.8695   1416.67358     803.7541     499.8695
   1416.65833     804.0370     500.9279   1416.65833     804.0370     500.9279
   1416.64307     804.3264     500.7565   1416.64307     804.3264     500.7565
   1416.62781     804.7070     501.0419   1416.62781     804.7070     501.0419
   1416.61255     804.5771     502.9492   1416.61255     804.5771     502.9492
   1416.59729     805.9108     503.2358   1416.59729     805.9108     503.2358
   1416.58203     803.7377     503.7494   1416.58203     803.7377     503.7494
   1416.56677     803.5796     505.3681   1416.56677     803.5796     505.3681
   1416.55151     804.2798     504.5359   1416.55151     804.2798     504.5359
   1416.53625     804.8918     505.4973   1416.53625     804.8918     505.4973
   1416.52100     804.1966     505.8041   1416.52100     804.1966     505.8041
   1416.50574     803.8356     506.3557   1416.50574     803.8356     506.3557
   1416.49048     804.9990     507.7750   1416.49048     804.9990     507.7750
   1416.47522     803.5473     507.7899   1416.47522     803.5473     507.7899
   1416.45996     804.6988     507.9084   1416.45996     804.6988     507.9084
   1416.44470     803.9359     508.7451   1416.44470     803.9359     508.7451
   1416.42944     805.2770     510.1026   1416.42944     805.2770     510.1026
   1416.41418     803.4794     509.7346   1416.41418     803.4794     509.7346
   1416.39893     804.6854     510.2883   1416.39893     804.6854     510.2883
   1416.38367     801.8351     510.9240   1416.38367     801.8351     510.9240
   1416.36841     802.8000     511.2663   1416.36841     802.8000     511.2663
   1416.35315     803.3873     511.9642   1416.35315     803.3873     511.9642
   1416.33789     802.1091     511.2339   1416.33789     802.1091     511.2339
   1416.32263     802.1470     512.1721   1416.32263     802.1470     512.1721
   1416.30737     801.8207     513.1749   1416.30737     801.8207     513.1749
   1416.29211     802.0319     512.9552   1416.29211     802.0319     512.9552
   1416.27686     801.4054     513.5410   1416.27686     801.4054     513.5410
   1416.26160     802.9573     514.0787   1416.26160     802.9573     514.0787
   1416.24634     801.4420     514.1452   1416.24634     801.4420     514.1452
   1416.23108     801.3814     515.2850   1416.23108     801.3814     515.2850
   1416.21582     800.2490     514.9941   1416.21582     800.2490     514.9941
   1416.20056     800.6741     514.5845   1416.20056     800.6741     514.5845
   1416.18530     800.0929     514.6561   1416.18530     800.0929     514.6561
   1416.17004     798.8936     515.7583   1416.17004     798.8936     515.7583
   1416.15479     799.6007     515.8991   1416.15479     799.6007     515.8991
   1416.13953     798.1758     516.0830   1416.13953     798.1758     516.0830
   1416.12427     797.3406     516.5928   1416.12427     797.3406     516.5928
   1416.10901     797.5305     516.4208   1416.10901     797.5305     516.4208
   1416.09375     796.3232     516.6747   1416.09375     796.3232     516.6747
   1416.07849     796.5720     517.2299   1416.07849     796.5720     517.2299
   1416.06323     796.8275     516.8092   1416.06323     796.8275     516.8092
   1416.04797     794.2944     517.1449   1416.04797     794.2944     517.1449
   1416.03271     796.0032     518.0386   1416.03271     796.0032     518.0386
   1416.01746     794.3953     517.6882   1416.01746     794.3953     517.6882
   1416.00220     794.8611     516.8010   1416.00220     794.8611     516.8010
   1415.98694     793.8489     517.4456   1415.98694     793.8489     517.4456
   1415.97168     793.5580     517.0826   1415.97168     793.5580     517.0826
   1415.95642     791.7903     517.5269   1415.95642     791.7903     517.5269
   1415.94116     792.7058     517.3638   1415.94116     792.7058     517.3638
   1415.92590     791.4131     516.9733   1415.92590     791.4131     516.9733
   1415.91064     791.0339     517.6558   1415.91064     791.0339     517.6558
   1415.89539     788.7328     517.9039   1415.89539     788.7328     517.9039
   1415.88013     790.1149     517.9595   1415.88013     790.1149     517.9595
   1415.86487     788.9584     517.2873   1415.86487     788.9584     517.2873
   1415.84961     787.4591     518.0593   1415.84961     787.4591     518.0593
   1415.83435     787.1790     518.1534   1415.83435     787.1790     518.1534
   1415.81909     786.1733     518.2612   1415.81909     786.1733     518.2612
   1415.80383     784.4854     517.8303   1415.80383     784.4854     517.8303
   1415.78857     785.0218     518.2018   1415.78857     785.0218     518.2018
   1415.77332     783.0021     517.9260   1415.77332     783.0021     517.9260
   1415.75806     783.1042     516.0302   1415.75806     783.1042     516.0302
   1415.74280     782.6817     517.6057   1415.74280     782.6817     517.6057
   1415.72754     782.1445     518.0629   1415.72754     782.1445     518.0629
   1415.71228     780.4863     517.4951   1415.71228     780.4863     517.4951
   1415.69702     779.1085     517.0989   1415.69702     779.1085     517.0989
   1415.68176     779.0728     517.6824   1415.68176     779.0728     517.6824
   1415.66650     778.2750     516.5311   1415.66650     778.2750     516.5311
   1415.65125     778.0258     516.8790   1415.65125     778.0258     516.8790
   1415.63599     778.0041     516.2738   1415.63599     778.0041     516.2738
   1415.62073     775.4233     516.5510   1415.62073     775.4233     516.5510
   1415.60547     774.6437     515.6332   1415.60547     774.6437     515.6332
   1415.59021     775.1742     516.8134   1415.59021     775.1742     516.8134
   1415.57495     773.5370     515.6171   1415.57495     773.5370     515.6171
   1415.55969     771.6318     515.4308   1415.55969     771.6318     515.4308
   1415.54443     771.1033     515.2975   1415.54443     771.1033     515.2975
   1415.52917     770.6080     514.9828   1415.52917     770.6080     514.9828
   1415.51392     769.6180     515.5297   1415.51392     769.6180     515.5297
   1415.49866     769.3928     514.8572   1415.49866     769.3928     514.8572
   1415.48340     767.9171     514.2871   1415.48340     767.9171     514.2871
   1415.46814     767.0895     514.8846   1415.46814     767.0895     514.8846
   1415.45288     765.1880     514.3521   1415.45288     765.1880     514.3521
   1415.43762     764.5483     513.7334   1415.43762     764.5483     513.7334
   1415.42236     763.9977     513.3292   1415.42236     763.9977     513.3292
   1415.40710     762.4029     513.9142   1415.40710     762.4029     513.9142
   1415.39185     762.3839     512.7896   1415.39185     762.3839     512.7896
   1415.37659     760.1694     513.0067   1415.37659     760.1694     513.0067
   1415.36133     759.8506     513.0079   1415.36133     759.8506     513.0079
   1415.34607     757.0660     512.1893   1415.34607     757.0660     512.1893
   1415.33081     757.1532     512.3886   1415.33081     757.1532     512.3886
   1415.31555     756.0111     511.1253   1415.31555     756.0111     511.1253
   1415.30029     754.4581     510.7915   1415.30029     754.4581     510.7915
   1415.28503     753.4237     510.7928   1415.28503     753.4237     510.7928
   1415.26978     752.1757     510.0039   1415.26978     752.1757     510.0039
   1415.25452     752.0695     510.4850   1415.25452     752.0695     510.4850
   1415.23926     750.5999     508.9880   1415.23926     750.5999     508.9880
   1415.22400     749.1816     509.7535   1415.22400     749.1816     509.7535
   1415.20874     747.0991     508.8828   1415.20874     747.0991     508.8828
   1415.19348     746.3510     508.2977   1415.19348     746.3510     508.2977
   1415.17822     744.8265     508.4444   1415.17822     744.8265     508.4444
   1415.16296     744.0567     507.3198   1415.16296     744.0567     507.3198
   1415.14771     741.7803     507.2396   1415.14771     741.7803     507.2396
   1415.13245     740.9788     506.4814   1415.13245     740.9788     506.4814
   1415.11719     739.0355     505.5512   1415.11719     739.0355     505.5512
   1415.10193     738.0945     506.0004   1415.10193     738.0945     506.0004
   1415.08667     737.0433     505.0620   1415.08667     737.0433     505.0620
   1415.07141     735.2748     505.4040   1415.07141     735.2748     505.4040
   1415.05615     734.2218     503.4127   1415.05615     734.2218     503.4127
   1415.04089     732.8058     503.3875   1415.04089     732.8058     503.3875
   1415.02563     731.4507     502.7346   1415.02563     731.4507     502.7346
   1415.01038     730.0579     501.3296   1415.01038     730.0579     501.3296
   1414.99512     727.6956     501.3217   1414.99512     727.6956     501.3217
   1414.97986     727.2108     500.6927   1414.97986     727.2108     500.6927
   1414.96460     725.1426     499.8858   1414.96460     725.1426     499.8858
   1414.94934     724.8165     499.4745   1414.94934     724.8165     499.4745
   1414.93408     722.8662     499.5276   1414.93408     722.8662     499.5276
   1414.91882     720.8307     498.4607   1414.91882     720.8307     498.4607
   1414.90356     718.4907     498.0594   1414.90356     718.4907     498.0594
   1414.88831     718.6954     496.6679   1414.88831     718.6954     496.6679
   1414.87305     715.9503     495.7699   1414.87305     715.9503     495.7699
   1414.85779     714.8738     495.7248   1414.85779     714.8738     495.7248
   1414.84253     711.9987     494.0427   1414.84253     711.9987     494.0427
   1414.82727     710.8360     494.4861   1414.82727     710.8360     494.4861
   1414.81201     708.9167     493.2871   1414.81201     708.9167     493.2871
   1414.79675     707.6118     492.2693   1414.79675     707.6118     492.2693
   1414.78149     705.7803     491.1183   1414.78149     705.7803     491.1183
   1414.76624     704.1075     490.6130   1414.76624     704.1075     490.6130
   1414.75098     702.7072     490.7837   1414.75098     702.7072     490.7837
   1414.73572     699.5575     489.3795   1414.73572     699.5575     489.3795
   1414.72046     697.9827     487.5879   1414.72046     697.9827     487.5879
   1414.70520     697.1091     486.9714   1414.70520     697.1091     486.9714
   1414.68994     694.3832     486.2529   1414.68994     694.3832     486.2529
   1414.67468     692.3497     484.5424   1414.67468     692.3497     484.5424
   1414.65942     691.2599     484.7603   1414.65942     691.2599     484.7603
   1414.64417     689.4182     483.1059   1414.64417     689.4182     483.1059
   1414.62891     687.3018     482.7320   1414.62891     687.3018     482.7320
   1414.61365     685.6458     481.5865   1414.61365     685.6458     481.5865
   1414.59839     682.9382     480.4350   1414.59839     682.9382     480.4350
   1414.58313     682.2115     479.5363   1414.58313     682.2115     479.5363
   1414.56787     680.3096     478.1859   1414.56787     680.3096     478.1859
   1414.55261     677.5515     477.0201   1414.55261     677.5515     477.0201
   1414.53735     675.1265     475.6548   1414.53735     675.1265     475.6548
   1414.52209     673.1316     474.9182   1414.52209     673.1316     474.9182
   1414.50684     671.3148     473.8917   1414.50684     671.3148     473.8917
   1414.49158     670.2104     473.0390   1414.49158     670.2104     473.0390
   1414.47632     665.8674     471.1719   1414.47632     665.8674     471.1719
   1414.46106     664.3861     470.8113   1414.46106     664.3861     470.8113
   1414.44580     662.7761     470.1580   1414.44580     662.7761     470.1580
   1414.43054     660.4788     469.0318   1414.43054     660.4788     469.0318
   1414.41528     658.3710     467.2503   1414.41528     658.3710     467.2503
   1414.40002     656.5009     466.4969   1414.40002     656.5009     466.4969
   1414.38477     653.7245     465.0309   1414.38477     653.7245     465.0309
   1414.36951     651.4631     463.0866   1414.36951     651.4631     463.0866
   1414.35425     649.5234     462.5432   1414.35425     649.5234     462.5432
   1414.33899     646.9799     460.4623   1414.33899     646.9799     460.4623
   1414.32373     644.7953     460.0904   1414.32373     644.7953     460.0904
   1414.30847     642.0074     458.2645   1414.30847     642.0074     458.2645
   1414.29321     640.3491     457.1344   1414.29321     640.3491     457.1344
   1414.27795     636.5618     455.6078   1414.27795     636.5618     455.6078
   1414.26270     635.0914     454.3631   1414.26270     635.0914     454.3631
   1414.24744     632.5464     453.4504   1414.24744     632.5464     453.4504
   1414.23218     629.3019     451.6331   1414.23218     629.3019     451.6331
   1414.21692     627.5722     450.7162   1414.21692     627.5722     450.7162
   1414.20166     625.9498     449.0526   1414.20166     625.9498     449.0526
   1414.18640     622.4070     447.7224   1414.18640     622.4070     447.7224
   1414.17114     620.4132     446.7056   1414.17114     620.4132     446.7056
   1414.15588     618.4276     445.0535   1414.15588     618.4276     445.0535
   1414.14062     615.1796     443.0207   1414.14062     615.1796     443.0207
   1414.12537     613.7371     441.9939   1414.12537     613.7371     441.9939
   1414.11011     609.9605     440.3723   1414.11011     609.9605     440.3723
   1414.09485     607.8201     438.9356   1414.09485     607.8201     438.9356
   1414.07959     604.3702     437.1028   1414.07959     604.3702     437.1028
   1414.06433     602.6804     436.1624   1414.06433     602.6804     436.1624
   1414.04907     600.6312     434.8828   1414.04907     600.6312     434.8828
   1414.03381     597.9399     433.0673   1414.03381     597.9399     433.0673
   1414.01855     595.4792     431.4896   1414.01855     595.4792     431.4896
   1414.00330     613.7199     437.6946   1414.00330     613.7199     437.6946
   1413.98804     590.7902     428.6992   1413.98804     590.7902     428.6992
   1413.97278     586.9346     426.7236   1413.97278     586.9346     426.7236
   1413.95752     584.5046     425.4254   1413.95752     584.5046     425.4254
   1413.94226     581.7338     424.1914   1413.94226     581.7338     424.1914
   1413.92700     579.2805     421.6093   1413.92700     579.2805     421.6093
   1413.91174     575.8926     420.6707   1413.91174     575.8926     420.6707
   1413.89648     573.2683     419.5812   1413.89648     573.2683     419.5812
   1413.88123     570.5443     416.7964   1413.88123     570.5443     416.7964
   1413.86597     566.9901     416.6454   1413.86597     566.9901     416.6454
   1413.85071     565.4453     413.7663   1413.85071     565.4453     413.7663
   1413.83545     561.8035     412.5828   1413.83545     561.8035     412.5828
   1413.82019     559.3320     411.4364   1413.82019     559.3320     411.4364
   1413.80493     556.4366     409.7830   1413.80493     556.4366     409.7830
   1413.78967     554.1868     407.0233   1413.78967     554.1868     407.0233
   1413.77441     551.1497     405.6680   1413.77441     551.1497     405.6680
   1413.75916     548.0597     404.1608   1413.75916     548.0597     404.1608
   1413.74390     545.7589     402.2878   1413.74390     545.7589     402.2878
   1413.72864     541.5461     401.2201   1413.72864     541.5461     401.2201
   1413.71338     539.8434     399.1724   1413.71338     539.8434     399.1724
   1413.69812     537.4822     398.4629   1413.69812     537.4822     398.4629
   1413.68286     535.0085     395.4271   1413.68286     535.0085     395.4271
   1413.66760     531.9481     394.8516   1413.66760     531.9481     394.8516
   1413.65234     528.9052     393.4369   1413.65234     528.9052     393.4369
   1413.63708     526.0516     391.4435   1413.63708     526.0516     391.4435
   1413.62183     523.4915     389.5250   1413.62183     523.4915     389.5250
   1413.60657     521.0014     387.5596   1413.60657     521.0014     387.5596
   1413.59131     517.6494     385.6987   1413.59131     517.6494     385.6987
   1413.57605     514.9319     384.0916   1413.57605     514.9319     384.0916
   1413.56079     512.4493     383.0807   1413.56079     512.4493     383.0807
   1413.54553     509.3080     381.1237   1413.54553     509.3080     381.1237
   1413.53027     507.7358     379.2623   1413.53027     507.7358     379.2623
   1413.51501     504.0666     377.7184   1413.51501     504.0666     377.7184
   1413.49976     500.9108     376.2506   1413.49976     500.9108     376.2506
   1413.48450     497.9531     374.8309   1413.48450     497.9531     374.8309
   1413.46924     495.6461     372.9517   1413.46924     495.6461     372.9517
   1413.45398     492.8587     371.3259   1413.45398     492.8587     371.3259
   1413.43872     489.4135     369.6487   1413.43872     489.4135     369.6487
   1413.42346     488.0727     368.5787   1413.42346     488.0727     368.5787
   1413.40820     484.7165     367.3766   1413.40820     484.7165     367.3766
   1413.39294     481.9319     365.5463   1413.39294     481.9319     365.5463
   1413.37769     479.8776     363.7741   1413.37769     479.8776     363.7741
   1413.36243     476.7085     361.7266   1413.36243     476.7085     361.7266
   1413.34717     475.1912     360.9110   1413.34717     475.1912     360.9110
   1413.33191     471.6752     359.0966   1413.33191     471.6752     359.0966
   1413.31665     468.8686     357.7807   1413.31665     468.8686     357.7807
   1413.30139     466.7104     355.7881   1413.30139     466.7104     355.7881
   1413.28613     464.1136     354.6787   1413.28613     464.1136     354.6787
   1413.27087     460.7285     353.3331   1413.27087     460.7285     353.3331
   1413.25562     458.7184     352.4156   1413.25562     458.7184     352.4156
   1413.24036     456.2983     350.4210   1413.24036     456.2983     350.4210
   1413.22510     454.2391     348.8209   1413.22510     454.2391     348.8209
   1413.20984     451.8016     347.9352   1413.20984     451.8016     347.9352
   1413.19458     448.9612     346.3301   1413.19458     448.9612     346.3301
   1413.17932     447.0424     345.2982   1413.17932     447.0424     345.2982
   1413.16406     444.6992     344.2250   1413.16406     444.6992     344.2250
   1413.14880     442.2746     342.3926   1413.14880     442.2746     342.3926
   1413.13354     439.5472     341.4586   1413.13354     439.5472     341.4586
   1413.11829     436.6813     340.2698   1413.11829     436.6813     340.2698
   1413.10303     434.9622     338.8260   1413.10303     434.9622     338.8260
   1413.08777     432.6306     337.9661   1413.08777     432.6306     337.9661
   1413.07251     430.0520     337.0338   1413.07251     430.0520     337.0338
   1413.05725     428.4177     335.3675   1413.05725     428.4177     335.3675
   1413.04199     426.2551     334.7473   1413.04199     426.2551     334.7473
   1413.02673     424.4163     333.8741   1413.02673     424.4163     333.8741
   1413.01147     421.6470     332.3792   1413.01147     421.6470     332.3792
   1412.99622     420.0195     331.7126   1412.99622     420.0195     331.7126
   1412.98096     418.3141     330.9286   1412.98096     418.3141     330.9286
   1412.96570     415.7631     329.7561   1412.96570     415.7631     329.7561
   1412.95044     413.8700     329.1782   1412.95044     413.8700     329.1782
   1412.93518     412.1594     327.6980   1412.93518     412.1594     327.6980
   1412.91992     409.8638     327.2664   1412.91992     409.8638     327.2664
   1412.90466     409.1472     326.7179   1412.90466     409.1472     326.7179
   1412.88940     407.1157     325.8038   1412.88940     407.1157     325.8038
   1412.87415     405.1202     325.0662   1412.87415     405.1202     325.0662
   1412.85889     403.5905     324.4888   1412.85889     403.5905     324.4888
   1412.84363     401.6347     324.2593   1412.84363     401.6347     324.2593
   1412.82837     400.1877     322.9716   1412.82837     400.1877     322.9716
   1412.81311     398.7275     322.5388   1412.81311     398.7275     322.5388
   1412.79785     397.1231     322.5677   1412.79785     397.1231     322.5677
   1412.78259     396.2526     321.9740   1412.78259     396.2526     321.9740
   1412.76733     394.0445     321.6047   1412.76733     394.0445     321.6047
   1412.75208     392.7028     320.9756   1412.75208     392.7028     320.9756
   1412.73682     392.0031     320.9741   1412.73682     392.0031     320.9741
   1412.72156     390.3080     320.7965   1412.72156     390.3080     320.7965
   1412.70630     389.1076     320.6703   1412.70630     389.1076     320.6703
   1412.69104     387.6075     320.3019   1412.69104     387.6075     320.3019
   1412.67578     386.1841     320.1971   1412.67578     386.1841     320.1971
   1412.66052     385.0191     319.1761   1412.66052     385.0191     319.1761
   1412.64526     384.8418     319.7208   1412.64526     384.8418     319.7208
   1412.63000     383.9006     319.7394   1412.63000     383.9006     319.7394
   1412.61475     382.3871     319.9049   1412.61475     382.3871     319.9049
   1412.59949     381.7606     319.8368   1412.59949     381.7606     319.8368
   1412.58423     380.7462     320.7655   1412.58423     380.7462     320.7655
   1412.56897     379.4443     320.3305   1412.56897     379.4443     320.3305
   1412.55371     379.3575     321.0562   1412.55371     379.3575     321.0562
   1412.53845     378.1839     321.2642   1412.53845     378.1839     321.2642
   1412.52319     378.1849     321.6242   1412.52319     378.1849     321.6242
   1412.50793     377.0546     321.8606   1412.50793     377.0546     321.8606
   1412.49268     377.4527     322.5047   1412.49268     377.4527     322.5047
   1412.47742     376.4709     323.0096   1412.47742     376.4709     323.0096
   1412.46216     376.3854     323.6090   1412.46216     376.3854     323.6090
   1412.44690     375.3344     324.4426   1412.44690     375.3344     324.4426
   1412.43164     375.5080     325.2205   1412.43164     375.5080     325.2205
   1412.41638     375.8177     325.9379   1412.41638     375.8177     325.9379
   1412.40112     375.0252     326.9522   1412.40112     375.0252     326.9522
   1412.38586     374.8274     327.7607   1412.38586     374.8274     327.7607
   1412.37061     374.6897     328.3932   1412.37061     374.6897     328.3932
   1412.35535     374.6041     329.3399   1412.35535     374.6041     329.3399
   1412.34009     375.4427     330.2651   1412.34009     375.4427     330.2651
   1412.32483     375.0868     331.4536   1412.32483     375.0868     331.4536
   1412.30957     374.8833     332.5702   1412.30957     374.8833     332.5702
   1412.29431     374.8808     333.5583   1412.29431     374.8808     333.5583
   1412.27905     375.5897     335.5750   1412.27905     375.5897     335.5750
   1412.26379     375.7348     336.3048   1412.26379     375.7348     336.3048
   1412.24854     376.4099     337.3720   1412.24854     376.4099     337.3720
   1412.23328     376.7226     339.4029   1412.23328     376.7226     339.4029
   1412.21802     376.6330     340.1743   1412.21802     376.6330     340.1743
   1412.20276     377.5300     342.5801   1412.20276     377.5300     342.5801