#     FILENAME=!Skynet_57528_lach-hhg-154_20507_20978.cyb.fits
#     BASENAME=Skynet_57528_lach-hhg-154_20507_20978
#     SRC_NAME=lach-hhg-154
#     OBSERVER=hhgmadison16_9500
#     DATE_OBS=2016-05-20T17:45:38.430
#        OBSID=20507
#      SCANNUM=20978
#          MJD=57528.7411
#          UTC=64027
#     SCANTYPE=track
#     DATAMODE=HIRES
#     TUNEFREQ=1420.0000
# Actual_FREQ1=1420.0000
# Actual_FREQ2=1420.0000
#    LO1Tuning=6870.000
#     RFFILTER=1355_1435
#        OBSBW=-15.6250
#        NCHAN=1024 
#        FOCUS=37.0709
#           RA=04:22:55.25
#          DEC=49:40:13.99
#      RA(hrs)=4.382000
#     DEC(deg)=49.670600
#    AZIM(deg)=1.709
#    ELEV(deg)=78.650
#     IFattens=10.00, 9.00
#      WARNING=None
#    TCAL_XL1=7.9635
#    TCAL_YR1=9.1340
#    TCAL_XL2=7.9635
#    TCAL_YR2=9.1340
#     TRX_XL1=11.7060
#     TRX_YR1=11.7060
#     TRX_XL2=11.7060
#     TRX_YR2=11.7060
#        TAVE=1.0000
#Freq1(MHz)          XL1          YR1  Freq2(MHz)          XL2          YR2 

   1427.81250     378.5762     337.1377   1427.81250     378.5762     337.1377
   1427.79724     379.3228     338.8669   1427.79724     379.3228     338.8669
   1427.78198     380.6136     340.1764   1427.78198     380.6136     340.1764
   1427.76672     381.4237     341.5233   1427.76672     381.4237     341.5233
   1427.75146     381.5278     343.1884   1427.75146     381.5278     343.1884
   1427.73621     382.0438     345.4629   1427.73621     382.0438     345.4629
   1427.72095     383.6648     347.0535   1427.72095     383.6648     347.0535
   1427.70569     383.8423     348.9109   1427.70569     383.8423     348.9109
   1427.69043     385.6299     350.8661   1427.69043     385.6299     350.8661
   1427.67517     386.9771     352.2422   1427.67517     386.9771     352.2422
   1427.65991     387.7286     353.2195   1427.65991     387.7286     353.2195
   1427.64465     388.8490     356.1624   1427.64465     388.8490     356.1624
   1427.62939     390.6952     357.9557   1427.62939     390.6952     357.9557
   1427.61414     391.6192     359.5533   1427.61414     391.6192     359.5533
   1427.59888     392.7875     361.3521   1427.59888     392.7875     361.3521
   1427.58362     393.9424     364.3471   1427.58362     393.9424     364.3471
   1427.56836     396.0017     365.6720   1427.56836     396.0017     365.6720
   1427.55310     397.3673     367.4023   1427.55310     397.3673     367.4023
   1427.53784     399.0194     369.7427   1427.53784     399.0194     369.7427
   1427.52258     399.3316     372.1643   1427.52258     399.3316     372.1643
   1427.50732     401.9229     373.9174   1427.50732     401.9229     373.9174
   1427.49207     403.2059     376.4704   1427.49207     403.2059     376.4704
   1427.47681     404.9671     379.0712   1427.47681     404.9671     379.0712
   1427.46155     407.1429     381.1553   1427.46155     407.1429     381.1553
   1427.44629     408.9535     383.8283   1427.44629     408.9535     383.8283
   1427.43103     411.3183     385.3542   1427.43103     411.3183     385.3542
   1427.41577     412.6615     387.9323   1427.41577     412.6615     387.9323
   1427.40051     414.1649     390.0570   1427.40051     414.1649     390.0570
   1427.38525     415.9456     392.6948   1427.38525     415.9456     392.6948
   1427.37000     418.0678     394.8589   1427.37000     418.0678     394.8589
   1427.35474     420.3615     397.0951   1427.35474     420.3615     397.0951
   1427.33948     422.2860     399.6716   1427.33948     422.2860     399.6716
   1427.32422     425.0987     402.8357   1427.32422     425.0987     402.8357
   1427.30896     427.3918     404.6032   1427.30896     427.3918     404.6032
   1427.29370     429.6900     407.6186   1427.29370     429.6900     407.6186
   1427.27844     430.9940     410.1621   1427.27844     430.9940     410.1621
   1427.26318     434.0853     411.8588   1427.26318     434.0853     411.8588
   1427.24792     436.4184     414.5147   1427.24792     436.4184     414.5147
   1427.23267     438.4668     416.6063   1427.23267     438.4668     416.6063
   1427.21741     440.4621     419.5035   1427.21741     440.4621     419.5035
   1427.20215     442.8187     422.4268   1427.20215     442.8187     422.4268
   1427.18689     445.4922     425.1033   1427.18689     445.4922     425.1033
   1427.17163     448.8815     428.0682   1427.17163     448.8815     428.0682
   1427.15637     450.5070     430.4598   1427.15637     450.5070     430.4598
   1427.14111     453.6397     432.3865   1427.14111     453.6397     432.3865
   1427.12585     456.1930     434.4117   1427.12585     456.1930     434.4117
   1427.11060     457.8919     438.3295   1427.11060     457.8919     438.3295
   1427.09534     461.6535     440.0806   1427.09534     461.6535     440.0806
   1427.08008     464.3669     442.6432   1427.08008     464.3669     442.6432
   1427.06482     465.6387     445.4026   1427.06482     465.6387     445.4026
   1427.04956     469.2917     447.6586   1427.04956     469.2917     447.6586
   1427.03430     472.3679     450.1996   1427.03430     472.3679     450.1996
   1427.01904     475.0552     452.9759   1427.01904     475.0552     452.9759
   1427.00378     478.1214     454.9601   1427.00378     478.1214     454.9601
   1426.98853     480.6170     458.0941   1426.98853     480.6170     458.0941
   1426.97327     482.8929     461.1494   1426.97327     482.8929     461.1494
   1426.95801     486.4807     463.4841   1426.95801     486.4807     463.4841
   1426.94275     488.7871     464.9064   1426.94275     488.7871     464.9064
   1426.92749     491.4811     467.9024   1426.92749     491.4811     467.9024
   1426.91223     494.5370     469.8044   1426.91223     494.5370     469.8044
   1426.89697     498.1473     473.0313   1426.89697     498.1473     473.0313
   1426.88171     501.0776     475.3321   1426.88171     501.0776     475.3321
   1426.86646     503.1396     477.5540   1426.86646     503.1396     477.5540
   1426.85120     506.1499     480.0261   1426.85120     506.1499     480.0261
   1426.83594     509.8275     482.5151   1426.83594     509.8275     482.5151
   1426.82068     513.3455     485.1233   1426.82068     513.3455     485.1233
   1426.80542     515.4467     487.5080   1426.80542     515.4467     487.5080
   1426.79016     518.6180     489.4016   1426.79016     518.6180     489.4016
   1426.77490     521.9035     492.0505   1426.77490     521.9035     492.0505
   1426.75964     523.9218     493.9573   1426.75964     523.9218     493.9573
   1426.74438     527.8285     495.7460   1426.74438     527.8285     495.7460
   1426.72913     530.9777     498.6843   1426.72913     530.9777     498.6843
   1426.71387     533.4442     501.2441   1426.71387     533.4442     501.2441
   1426.69861     537.4182     503.7819   1426.69861     537.4182     503.7819
   1426.68335     540.4679     506.0962   1426.68335     540.4679     506.0962
   1426.66809     543.6456     508.4417   1426.66809     543.6456     508.4417
   1426.65283     546.4709     510.1821   1426.65283     546.4709     510.1821
   1426.63757     549.5013     512.9196   1426.63757     549.5013     512.9196
   1426.62231     555.2734     522.8196   1426.62231     555.2734     522.8196
   1426.60706     556.1920     518.3696   1426.60706     556.1920     518.3696
   1426.59180     559.1693     518.9876   1426.59180     559.1693     518.9876
   1426.57654     562.1996     520.8417   1426.57654     562.1996     520.8417
   1426.56128     565.0830     522.7602   1426.56128     565.0830     522.7602
   1426.54602     568.9946     524.5643   1426.54602     568.9946     524.5643
   1426.53076     570.5361     527.0653   1426.53076     570.5361     527.0653
   1426.51550     573.7551     528.9484   1426.51550     573.7551     528.9484
   1426.50024     576.7479     531.2353   1426.50024     576.7479     531.2353
   1426.48499     580.4279     532.9529   1426.48499     580.4279     532.9529
   1426.46973     582.8622     535.4404   1426.46973     582.8622     535.4404
   1426.45447     586.1705     536.7517   1426.45447     586.1705     536.7517
   1426.43921     588.3073     538.9307   1426.43921     588.3073     538.9307
   1426.42395     592.5214     539.9456   1426.42395     592.5214     539.9456
   1426.40869     596.6097     542.8588   1426.40869     596.6097     542.8588
   1426.39343     598.7181     544.1786   1426.39343     598.7181     544.1786
   1426.37817     601.7073     545.0427   1426.37817     601.7073     545.0427
   1426.36292     605.0585     548.4034   1426.36292     605.0585     548.4034
   1426.34766     608.1417     548.9174   1426.34766     608.1417     548.9174
   1426.33240     611.1149     550.6019   1426.33240     611.1149     550.6019
   1426.31714     612.8535     552.9044   1426.31714     612.8535     552.9044
   1426.30188     616.8887     555.4116   1426.30188     616.8887     555.4116
   1426.28662     619.4508     556.4149   1426.28662     619.4508     556.4149
   1426.27136     622.3797     557.6356   1426.27136     622.3797     557.6356
   1426.25610     625.1296     558.9658   1426.25610     625.1296     558.9658
   1426.24084     628.5855     560.5504   1426.24084     628.5855     560.5504
   1426.22559     630.4795     562.1598   1426.22559     630.4795     562.1598
   1426.21033     634.3239     563.8996   1426.21033     634.3239     563.8996
   1426.19507     635.9852     566.0917   1426.19507     635.9852     566.0917
   1426.17981     638.0722     567.5986   1426.17981     638.0722     567.5986
   1426.16455     642.7404     568.3942   1426.16455     642.7404     568.3942
   1426.14929     644.3598     569.4384   1426.14929     644.3598     569.4384
   1426.13403     646.1761     571.5757   1426.13403     646.1761     571.5757
   1426.11877     649.1061     573.0220   1426.11877     649.1061     573.0220
   1426.10352     652.4215     574.1556   1426.10352     652.4215     574.1556
   1426.08826     655.2256     574.9664   1426.08826     655.2256     574.9664
   1426.07300     657.3900     576.3675   1426.07300     657.3900     576.3675
   1426.05774     659.9202     578.1661   1426.05774     659.9202     578.1661
   1426.04248     663.0179     579.0405   1426.04248     663.0179     579.0405
   1426.02722     664.4661     580.1874   1426.02722     664.4661     580.1874
   1426.01196     667.3577     582.0862   1426.01196     667.3577     582.0862
   1425.99670     669.7224     582.2903   1425.99670     669.7224     582.2903
   1425.98145     673.0524     583.1617   1425.98145     673.0524     583.1617
   1425.96619     674.8181     584.6194   1425.96619     674.8181     584.6194
   1425.95093     679.3298     586.2800   1425.95093     679.3298     586.2800
   1425.93567     680.5473     587.5582   1425.93567     680.5473     587.5582
   1425.92041     682.4258     587.9067   1425.92041     682.4258     587.9067
   1425.90515     685.1373     589.8771   1425.90515     685.1373     589.8771
   1425.88989     687.4293     589.6000   1425.88989     687.4293     589.6000
   1425.87463     688.7847     592.4227   1425.87463     688.7847     592.4227
   1425.85938     692.1341     591.9702   1425.85938     692.1341     591.9702
   1425.84412     695.3023     593.5623   1425.84412     695.3023     593.5623
   1425.82886     695.9586     593.6953   1425.82886     695.9586     593.6953
   1425.81360     698.2927     594.5681   1425.81360     698.2927     594.5681
   1425.79834     700.3203     595.8144   1425.79834     700.3203     595.8144
   1425.78308     702.4122     596.7354   1425.78308     702.4122     596.7354
   1425.76782     705.1771     597.5098   1425.76782     705.1771     597.5098
   1425.75256     705.4045     598.7032   1425.75256     705.4045     598.7032
   1425.73730     707.8120     598.9027   1425.73730     707.8120     598.9027
   1425.72205     711.1774     600.0241   1425.72205     711.1774     600.0241
   1425.70679     712.6724     599.7927   1425.70679     712.6724     599.7927
   1425.69153     715.0261     601.3366   1425.69153     715.0261     601.3366
   1425.67627     716.5499     602.7040   1425.67627     716.5499     602.7040
   1425.66101     718.7882     603.3524   1425.66101     718.7882     603.3524
   1425.64575     719.9831     604.9225   1425.64575     719.9831     604.9225
   1425.63049     720.9029     604.1533   1425.63049     720.9029     604.1533
   1425.61523     723.6227     605.3170   1425.61523     723.6227     605.3170
   1425.59998     725.2361     605.3516   1425.59998     725.2361     605.3516
   1425.58472     726.6930     605.5042   1425.58472     726.6930     605.5042
   1425.56946     729.3651     606.3722   1425.56946     729.3651     606.3722
   1425.55420     729.9159     607.6783   1425.55420     729.9159     607.6783
   1425.53894     732.3538     608.0066   1425.53894     732.3538     608.0066
   1425.52368     733.2211     608.1540   1425.52368     733.2211     608.1540
   1425.50842     734.8225     609.0945   1425.50842     734.8225     609.0945
   1425.49316     736.1793     608.9965   1425.49316     736.1793     608.9965
   1425.47791     738.9998     610.3676   1425.47791     738.9998     610.3676
   1425.46265     739.1564     610.5284   1425.46265     739.1564     610.5284
   1425.44739     741.0787     610.4227   1425.44739     741.0787     610.4227
   1425.43213     740.5787     610.9440   1425.43213     740.5787     610.9440
   1425.41687     744.0538     611.2449   1425.41687     744.0538     611.2449
   1425.40161     744.4153     611.0527   1425.40161     744.4153     611.0527
   1425.38635     745.6308     613.1479   1425.38635     745.6308     613.1479
   1425.37109     746.2537     612.5433   1425.37109     746.2537     612.5433
   1425.35583     748.7040     612.8040   1425.35583     748.7040     612.8040
   1425.34058     749.5298     612.7238   1425.34058     749.5298     612.7238
   1425.32532     750.5043     614.0052   1425.32532     750.5043     614.0052
   1425.31006     751.8025     612.5076   1425.31006     751.8025     612.5076
   1425.29480     753.2061     612.6543   1425.29480     753.2061     612.6543
   1425.27954     753.6657     614.0516   1425.27954     753.6657     614.0516
   1425.26428     754.2290     614.0341   1425.26428     754.2290     614.0341
   1425.24902     755.4540     614.2676   1425.24902     755.4540     614.2676
   1425.23376     756.6964     614.6354   1425.23376     756.6964     614.6354
   1425.21851     757.1312     614.6335   1425.21851     757.1312     614.6335
   1425.20325     756.7858     614.6454   1425.20325     756.7858     614.6454
   1425.18799     759.1096     614.4911   1425.18799     759.1096     614.4911
   1425.17273     759.3366     614.6259   1425.17273     759.3366     614.6259
   1425.15747     760.9404     615.1599   1425.15747     760.9404     615.1599
   1425.14221     761.5681     614.6903   1425.14221     761.5681     614.6903
   1425.12695     762.9670     615.1086   1425.12695     762.9670     615.1086
   1425.11169     763.2253     616.0710   1425.11169     763.2253     616.0710
   1425.09644     764.0909     616.2562   1425.09644     764.0909     616.2562
   1425.08118     765.3491     616.5176   1425.08118     765.3491     616.5176
   1425.06592     764.3398     615.3931   1425.06592     764.3398     615.3931
   1425.05066     764.9030     616.1128   1425.05066     764.9030     616.1128
   1425.03540     764.7115     615.9362   1425.03540     764.7115     615.9362
   1425.02014     766.6000     615.6914   1425.02014     766.6000     615.6914
   1425.00488     766.2684     616.7305   1425.00488     766.2684     616.7305
   1424.98962     767.4233     615.8865   1424.98962     767.4233     615.8865
   1424.97437     767.9971     615.3370   1424.97437     767.9971     615.3370
   1424.95911     768.3345     615.8799   1424.95911     768.3345     615.8799
   1424.94385     769.2448     616.0490   1424.94385     769.2448     616.0490
   1424.92859     768.9485     615.1614   1424.92859     768.9485     615.1614
   1424.91333     770.3752     615.9935   1424.91333     770.3752     615.9935
   1424.89807     770.9642     615.4146   1424.89807     770.9642     615.4146
   1424.88281     771.3360     615.1740   1424.88281     771.3360     615.1740
   1424.86755     770.6302     614.8954   1424.86755     770.6302     614.8954
   1424.85229     770.9428     615.0358   1424.85229     770.9428     615.0358
   1424.83704     770.1375     614.5544   1424.83704     770.1375     614.5544
   1424.82178     770.8754     614.8374   1424.82178     770.8754     614.8374
   1424.80652     772.7228     614.9537   1424.80652     772.7228     614.9537
   1424.79126     772.5513     614.5441   1424.79126     772.5513     614.5441
   1424.77600     771.8599     613.9091   1424.77600     771.8599     613.9091
   1424.76074     771.7236     613.9252   1424.76074     771.7236     613.9252
   1424.74548     771.5543     614.6017   1424.74548     771.5543     614.6017
   1424.73022     772.0868     613.0493   1424.73022     772.0868     613.0493
   1424.71497     773.5002     613.0723   1424.71497     773.5002     613.0723
   1424.69971     772.4230     613.7157   1424.69971     772.4230     613.7157
   1424.68445     772.2448     613.8846   1424.68445     772.2448     613.8846
   1424.66919     773.0059     613.2743   1424.66919     773.0059     613.2743
   1424.65393     771.5666     613.1837   1424.65393     771.5666     613.1837
   1424.63867     772.5913     612.8237   1424.63867     772.5913     612.8237
   1424.62341     771.2114     613.2574   1424.62341     771.2114     613.2574
   1424.60815     772.0148     612.6949   1424.60815     772.0148     612.6949
   1424.59290     771.8027     612.2130   1424.59290     771.8027     612.2130
   1424.57764     771.8351     612.5933   1424.57764     771.8351     612.5933
   1424.56238     773.4762     611.2190   1424.56238     773.4762     611.2190
   1424.54712     772.0378     611.4264   1424.54712     772.0378     611.4264
   1424.53186     771.5779     611.4265   1424.53186     771.5779     611.4265
   1424.51660     771.8033     610.9272   1424.51660     771.8033     610.9272
   1424.50134     770.9733     609.0843   1424.50134     770.9733     609.0843
   1424.48608     771.6587     609.8192   1424.48608     771.6587     609.8192
   1424.47083     770.2051     610.4830   1424.47083     770.2051     610.4830
   1424.45557     771.8013     608.9485   1424.45557     771.8013     608.9485
   1424.44031     772.3228     609.3858   1424.44031     772.3228     609.3858
   1424.42505     770.5627     608.3220   1424.42505     770.5627     608.3220
   1424.40979     770.4196     608.8404   1424.40979     770.4196     608.8404
   1424.39453     769.4648     607.9588   1424.39453     769.4648     607.9588
   1424.37927     770.1024     607.7720   1424.37927     770.1024     607.7720
   1424.36401     768.9081     607.6858   1424.36401     768.9081     607.6858
   1424.34875     768.9247     606.0825   1424.34875     768.9247     606.0825
   1424.33350     768.5731     608.0291   1424.33350     768.5731     608.0291
   1424.31824     768.8621     607.4745   1424.31824     768.8621     607.4745
   1424.30298     768.8035     606.2352   1424.30298     768.8035     606.2352
   1424.28772     768.7888     605.5434   1424.28772     768.7888     605.5434
   1424.27246     768.1350     606.0933   1424.27246     768.1350     606.0933
   1424.25720     768.1355     604.4337   1424.25720     768.1355     604.4337
   1424.24194     766.4338     605.2095   1424.24194     766.4338     605.2095
   1424.22668     767.0815     604.1877   1424.22668     767.0815     604.1877
   1424.21143     766.0679     603.6826   1424.21143     766.0679     603.6826
   1424.19617     765.8399     602.4860   1424.19617     765.8399     602.4860
   1424.18091     765.1036     603.1572   1424.18091     765.1036     603.1572
   1424.16565     764.8235     603.0255   1424.16565     764.8235     603.0255
   1424.15039     764.2581     602.6925   1424.15039     764.2581     602.6925
   1424.13513     763.8575     602.3265   1424.13513     763.8575     602.3265
   1424.11987     763.7813     600.4624   1424.11987     763.7813     600.4624
   1424.10461     763.4231     601.0585   1424.10461     763.4231     601.0585
   1424.08936     763.9564     601.4709   1424.08936     763.9564     601.4709
   1424.07410     762.5381     600.6002   1424.07410     762.5381     600.6002
   1424.05884     762.0638     600.6185   1424.05884     762.0638     600.6185
   1424.04358     762.6534     599.6670   1424.04358     762.6534     599.6670
   1424.02832     760.0496     599.6022   1424.02832     760.0496     599.6022
   1424.01306     759.6984     599.8922   1424.01306     759.6984     599.8922
   1423.99780     760.0653     598.6716   1423.99780     760.0653     598.6716
   1423.98254     759.9994     597.9430   1423.98254     759.9994     597.9430
   1423.96729     758.3510     597.9337   1423.96729     758.3510     597.9337
   1423.95203     758.8766     596.9947   1423.95203     758.8766     596.9947
   1423.93677     758.3593     596.4556   1423.93677     758.3593     596.4556
   1423.92151     757.2576     596.7695   1423.92151     757.2576     596.7695
   1423.90625     756.5193     595.2813   1423.90625     756.5193     595.2813
   1423.89099     757.2348     595.1047   1423.89099     757.2348     595.1047
   1423.87573     756.2520     595.6843   1423.87573     756.2520     595.6843
   1423.86047     757.1133     595.1958   1423.86047     757.1133     595.1958
   1423.84521     755.2493     594.7122   1423.84521     755.2493     594.7122
   1423.82996     756.0094     594.0788   1423.82996     756.0094     594.0788
   1423.81470     754.5615     593.3314   1423.81470     754.5615     593.3314
   1423.79944     754.2991     593.4938   1423.79944     754.2991     593.4938
   1423.78418     752.9961     593.0128   1423.78418     752.9961     593.0128
   1423.76892     753.2394     592.1593   1423.76892     753.2394     592.1593
   1423.75366     753.0654     591.0636   1423.75366     753.0654     591.0636
   1423.73840     752.1451     592.1500   1423.73840     752.1451     592.1500
   1423.72314     751.5946     590.8463   1423.72314     751.5946     590.8463
   1423.70789     752.3631     590.2786   1423.70789     752.3631     590.2786
   1423.69263     750.3363     589.6570   1423.69263     750.3363     589.6570
   1423.67737     750.2580     589.5870   1423.67737     750.2580     589.5870
   1423.66211     749.3209     589.0351   1423.66211     749.3209     589.0351
   1423.64685     749.3734     589.1371   1423.64685     749.3734     589.1371
   1423.63159     748.2057     588.6511   1423.63159     748.2057     588.6511
   1423.61633     748.5841     587.8255   1423.61633     748.5841     587.8255
   1423.60107     747.0483     587.5151   1423.60107     747.0483     587.5151
   1423.58582     747.5963     585.7589   1423.58582     747.5963     585.7589
   1423.57056     746.4767     585.6980   1423.57056     746.4767     585.6980
   1423.55530     745.0378     585.5100   1423.55530     745.0378     585.5100
   1423.54004     745.5210     585.1902   1423.54004     745.5210     585.1902
   1423.52478     745.2068     585.0943   1423.52478     745.2068     585.0943
   1423.50952     744.0495     585.2839   1423.50952     744.0495     585.2839
   1423.49426     742.4224     583.6679   1423.49426     742.4224     583.6679
   1423.47900     743.7874     583.0379   1423.47900     743.7874     583.0379
   1423.46375     742.8694     582.6749   1423.46375     742.8694     582.6749
   1423.44849     742.3758     581.8480   1423.44849     742.3758     581.8480
   1423.43323     742.4863     581.7631   1423.43323     742.4863     581.7631
   1423.41797     742.4643     581.1094   1423.41797     742.4643     581.1094
   1423.40271     740.7382     581.4259   1423.40271     740.7382     581.4259
   1423.38745     741.3124     580.1715   1423.38745     741.3124     580.1715
   1423.37219     741.2017     579.5009   1423.37219     741.2017     579.5009
   1423.35693     741.4404     579.3055   1423.35693     741.4404     579.3055
   1423.34167     740.6826     579.2518   1423.34167     740.6826     579.2518
   1423.32642     739.4260     578.7295   1423.32642     739.4260     578.7295
   1423.31116     738.8043     577.6577   1423.31116     738.8043     577.6577
   1423.29590     739.0685     577.3715   1423.29590     739.0685     577.3715
   1423.28064     737.7584     575.3632   1423.28064     737.7584     575.3632
   1423.26538     738.0927     576.1193   1423.26538     738.0927     576.1193
   1423.25012     737.3693     575.3851   1423.25012     737.3693     575.3851
   1423.23486     738.0850     574.6290   1423.23486     738.0850     574.6290
   1423.21960     737.5375     574.5613   1423.21960     737.5375     574.5613
   1423.20435     737.5594     573.9305   1423.20435     737.5594     573.9305
   1423.18909     735.8398     572.5684   1423.18909     735.8398     572.5684
   1423.17383     736.2114     571.6889   1423.17383     736.2114     571.6889
   1423.15857     735.2598     572.4597   1423.15857     735.2598     572.4597
   1423.14331     734.8398     570.1472   1423.14331     734.8398     570.1472
   1423.12805     733.9583     570.8982   1423.12805     733.9583     570.8982
   1423.11279     734.1472     569.7126   1423.11279     734.1472     569.7126
   1423.09753     733.3298     569.3965   1423.09753     733.3298     569.3965
   1423.08228     732.4628     568.8629   1423.08228     732.4628     568.8629
   1423.06702     731.7992     568.7761   1423.06702     731.7992     568.7761
   1423.05176     733.0812     567.8671   1423.05176     733.0812     567.8671
   1423.03650     732.7864     566.5120   1423.03650     732.7864     566.5120
   1423.02124     732.2418     566.7529   1423.02124     732.2418     566.7529
   1423.00598     732.0071     565.8115   1423.00598     732.0071     565.8115
   1422.99072     731.6784     565.2463   1422.99072     731.6784     565.2463
   1422.97546     731.3871     565.3487   1422.97546     731.3871     565.3487
   1422.96021     730.6661     564.3118   1422.96021     730.6661     564.3118
   1422.94495     731.2360     562.9524   1422.94495     731.2360     562.9524
   1422.92969     731.3839     563.5629   1422.92969     731.3839     563.5629
   1422.91443     730.8731     561.5779   1422.91443     730.8731     561.5779
   1422.89917     730.5278     562.2706   1422.89917     730.5278     562.2706
   1422.88391     729.7952     561.1614   1422.88391     729.7952     561.1614
   1422.86865     729.0255     559.9785   1422.86865     729.0255     559.9785
   1422.85339     729.8672     560.1098   1422.85339     729.8672     560.1098
   1422.83813     729.3507     558.4227   1422.83813     729.3507     558.4227
   1422.82288     729.1442     558.7944   1422.82288     729.1442     558.7944
   1422.80762     728.1957     557.5541   1422.80762     728.1957     557.5541
   1422.79236     728.0179     557.7351   1422.79236     728.0179     557.7351
   1422.77710     728.4358     556.7526   1422.77710     728.4358     556.7526
   1422.76184     726.7498     556.1694   1422.76184     726.7498     556.1694
   1422.74658     727.8409     556.2234   1422.74658     727.8409     556.2234
   1422.73132     727.2751     554.5423   1422.73132     727.2751     554.5423
   1422.71606     727.0151     554.0078   1422.71606     727.0151     554.0078
   1422.70081     726.1978     552.4625   1422.70081     726.1978     552.4625
   1422.68555     726.3087     552.1273   1422.68555     726.3087     552.1273
   1422.67029     726.6089     552.1172   1422.67029     726.6089     552.1172
   1422.65503     726.5067     550.4142   1422.65503     726.5067     550.4142
   1422.63977     725.8794     549.7493   1422.63977     725.8794     549.7493
   1422.62451     725.1749     550.2624   1422.62451     725.1749     550.2624
   1422.60925     725.2745     548.8512   1422.60925     725.2745     548.8512
   1422.59399     725.0691     547.5166   1422.59399     725.0691     547.5166
   1422.57874     725.1227     546.8192   1422.57874     725.1227     546.8192
   1422.56348     724.9408     546.4155   1422.56348     724.9408     546.4155
   1422.54822     725.3788     544.8651   1422.54822     725.3788     544.8651
   1422.53296     725.5395     546.3511   1422.53296     725.5395     546.3511
   1422.51770     724.8657     544.1168   1422.51770     724.8657     544.1168
   1422.50244     725.4578     543.7816   1422.50244     725.4578     543.7816
   1422.48718     724.6967     542.4990   1422.48718     724.6967     542.4990
   1422.47192     724.2292     542.8322   1422.47192     724.2292     542.8322
   1422.45667     723.5588     541.4733   1422.45667     723.5588     541.4733
   1422.44141     724.1171     539.8848   1422.44141     724.1171     539.8848
   1422.42615     723.2462     539.9212   1422.42615     723.2462     539.9212
   1422.41089     722.6043     538.6404   1422.41089     722.6043     538.6404
   1422.39563     723.4741     537.7567   1422.39563     723.4741     537.7567
   1422.38037     723.9977     537.3198   1422.38037     723.9977     537.3198
   1422.36511     723.5092     537.1534   1422.36511     723.5092     537.1534
   1422.34985     723.6705     535.1255   1422.34985     723.6705     535.1255
   1422.33459     723.3998     534.4464   1422.33459     723.3998     534.4464
   1422.31934     723.1342     533.9835   1422.31934     723.1342     533.9835
   1422.30408     723.4464     533.0010   1422.30408     723.4464     533.0010
   1422.28882     722.7959     532.3799   1422.28882     722.7959     532.3799
   1422.27356     723.3516     530.9846   1422.27356     723.3516     530.9846
   1422.25830     722.1371     531.3217   1422.25830     722.1371     531.3217
   1422.24304     722.2902     530.9561   1422.24304     722.2902     530.9561
   1422.22778     722.2190     529.0078   1422.22778     722.2190     529.0078
   1422.21252     722.7885     528.6826   1422.21252     722.7885     528.6826
   1422.19727     721.6759     527.8795   1422.19727     721.6759     527.8795
   1422.18201     721.4095     526.3934   1422.18201     721.4095     526.3934
   1422.16675     721.8359     525.9999   1422.16675     721.8359     525.9999
   1422.15149     721.3287     524.4709   1422.15149     721.3287     524.4709
   1422.13623     722.1238     523.1102   1422.13623     722.1238     523.1102
   1422.12097     720.7310     522.0677   1422.12097     720.7310     522.0677
   1422.10571     719.8810     521.5151   1422.10571     719.8810     521.5151
   1422.09045     722.0443     521.7032   1422.09045     722.0443     521.7032
   1422.07520     722.5874     520.6588   1422.07520     722.5874     520.6588
   1422.05994     722.9577     519.8143   1422.05994     722.9577     519.8143
   1422.04468     720.7119     519.1694   1422.04468     720.7119     519.1694
   1422.02942     721.0062     517.6212   1422.02942     721.0062     517.6212
   1422.01416     721.3380     517.2712   1422.01416     721.3380     517.2712
   1421.99890     720.4078     516.4684   1421.99890     720.4078     516.4684
   1421.98364     721.0717     514.4380   1421.98364     721.0717     514.4380
   1421.96838     721.8626     513.5880   1421.96838     721.8626     513.5880
   1421.95312     721.3937     513.1499   1421.95312     721.3937     513.1499
   1421.93787     721.1198     512.9493   1421.93787     721.1198     512.9493
   1421.92261     721.3766     511.4196   1421.92261     721.3766     511.4196
   1421.90735     720.7885     510.5923   1421.90735     720.7885     510.5923
   1421.89209     720.7667     509.5985   1421.89209     720.7667     509.5985
   1421.87683     720.3508     509.0754   1421.87683     720.3508     509.0754
   1421.86157     719.3060     508.1141   1421.86157     719.3060     508.1141
   1421.84631     720.9349     506.2885   1421.84631     720.9349     506.2885
   1421.83105     719.5520     505.9612   1421.83105     719.5520     505.9612
   1421.81580     720.7043     505.5930   1421.81580     720.7043     505.5930
   1421.80054     719.4359     504.6003   1421.80054     719.4359     504.6003
   1421.78528     720.2017     503.1976   1421.78528     720.2017     503.1976
   1421.77002     720.1813     502.5847   1421.77002     720.1813     502.5847
   1421.75476     720.4466     501.4924   1421.75476     720.4466     501.4924
   1421.73950     720.1721     500.0855   1421.73950     720.1721     500.0855
   1421.72424     719.7019     499.6848   1421.72424     719.7019     499.6848
   1421.70898     719.3662     498.5033   1421.70898     719.3662     498.5033
   1421.69373     720.6926     497.7726   1421.69373     720.6926     497.7726
   1421.67847     718.0136     496.7891   1421.67847     718.0136     496.7891
   1421.66321     719.2777     496.4589   1421.66321     719.2777     496.4589
   1421.64795     718.3853     495.1160   1421.64795     718.3853     495.1160
   1421.63269     719.6229     494.3971   1421.63269     719.6229     494.3971
   1421.61743     718.9548     493.1951   1421.61743     718.9548     493.1951
   1421.60217     720.4552     491.6195   1421.60217     720.4552     491.6195
   1421.58691     719.4199     491.2015   1421.58691     719.4199     491.2015
   1421.57166     718.2745     490.1705   1421.57166     718.2745     490.1705
   1421.55640     719.2969     489.4567   1421.55640     719.2969     489.4567
   1421.54114     719.2711     488.3362   1421.54114     719.2711     488.3362
   1421.52588     718.7818     487.6406   1421.52588     718.7818     487.6406
   1421.51062     717.7542     486.2941   1421.51062     717.7542     486.2941
   1421.49536     717.4552     485.6944   1421.49536     717.4552     485.6944
   1421.48010     720.1917     484.7608   1421.48010     720.1917     484.7608
   1421.46484     718.7286     483.4796   1421.46484     718.7286     483.4796
   1421.44958     717.9351     482.6846   1421.44958     717.9351     482.6846
   1421.43433     718.7454     481.8012   1421.43433     718.7454     481.8012
   1421.41907     717.5776     480.5434   1421.41907     717.5776     480.5434
   1421.40381     717.0818     479.7504   1421.40381     717.0818     479.7504
   1421.38855     719.2647     479.6920   1421.38855     719.2647     479.6920
   1421.37329     717.5378     477.4971   1421.37329     717.5378     477.4971
   1421.35803     715.6402     477.3345   1421.35803     715.6402     477.3345
   1421.34277     717.1013     476.5540   1421.34277     717.1013     476.5540
   1421.32751     717.9412     475.7126   1421.32751     717.9412     475.7126
   1421.31226     717.3731     474.4933   1421.31226     717.3731     474.4933
   1421.29700     717.0811     472.8313   1421.29700     717.0811     472.8313
   1421.28174     717.6118     472.7726   1421.28174     717.6118     472.7726
   1421.26648     716.5855     471.4023   1421.26648     716.5855     471.4023
   1421.25122     715.7332     471.2742   1421.25122     715.7332     471.2742
   1421.23596     716.1774     469.8979   1421.23596     716.1774     469.8979
   1421.22070     716.2177     469.2317   1421.22070     716.2177     469.2317
   1421.20544     716.2106     467.1889   1421.20544     716.2106     467.1889
   1421.19019     716.7175     466.2608   1421.19019     716.7175     466.2608
   1421.17493     716.2584     465.9797   1421.17493     716.2584     465.9797
   1421.15967     715.7193     465.4094   1421.15967     715.7193     465.4094
   1421.14441     715.4449     463.5229   1421.14441     715.4449     463.5229
   1421.12915     716.2819     463.5226   1421.12915     716.2819     463.5226
   1421.11389     715.3393     461.7729   1421.11389     715.3393     461.7729
   1421.09863     714.5156     461.1267   1421.09863     714.5156     461.1267
   1421.08337     715.3901     460.4314   1421.08337     715.3901     460.4314
   1421.06812     715.2943     459.5835   1421.06812     715.2943     459.5835
   1421.05286     714.8347     458.9459   1421.05286     714.8347     458.9459
   1421.03760     715.3736     458.7994   1421.03760     715.3736     458.7994
   1421.02234     716.2842     458.1384   1421.02234     716.2842     458.1384
   1421.00708     716.1015     456.8348   1421.00708     716.1015     456.8348
   1420.99182     716.4852     456.7411   1420.99182     716.4852     456.7411
   1420.97656     715.7032     455.3004   1420.97656     715.7032     455.3004
   1420.96130     717.2041     454.7760   1420.96130     717.2041     454.7760
   1420.94604     715.3830     453.8785   1420.94604     715.3830     453.8785
   1420.93079     718.7509     453.5076   1420.93079     718.7509     453.5076
   1420.91553     716.8324     452.8554   1420.91553     716.8324     452.8554
   1420.90027     716.5318     451.5140   1420.90027     716.5318     451.5140
   1420.88501     717.5166     452.4378   1420.88501     717.5166     452.4378
   1420.86975     718.5201     452.1158   1420.86975     718.5201     452.1158
   1420.85449     720.0852     451.9153   1420.85449     720.0852     451.9153
   1420.83923     721.2119     451.2830   1420.83923     721.2119     451.2830
   1420.82397     722.9805     452.3250   1420.82397     722.9805     452.3250
   1420.80872     725.6987     452.0688   1420.80872     725.6987     452.0688
   1420.79346     727.1454     452.8831   1420.79346     727.1454     452.8831
   1420.77820     734.9974     456.9282   1420.77820     734.9974     456.9282
   1420.76294     747.7264     462.7411   1420.76294     747.7264     462.7411
   1420.74768     753.5238     466.1906   1420.74768     753.5238     466.1906
   1420.73242     757.0567     467.8654   1420.73242     757.0567     467.8654
   1420.71716     769.9065     474.2352   1420.71716     769.9065     474.2352
   1420.70190     798.6117     490.9259   1420.70190     798.6117     490.9259
   1420.68665     831.2054     510.2115   1420.68665     831.2054     510.2115
   1420.67139     859.5343     524.8881   1420.67139     859.5343     524.8881
   1420.65613     876.0535     533.4857   1420.65613     876.0535     533.4857
   1420.64087     905.7686     551.2158   1420.64087     905.7686     551.2158
   1420.62561    1038.9796     627.7919   1420.62561    1038.9796     627.7919
   1420.61035    1316.1152     790.7057   1420.61035    1316.1152     790.7057
   1420.59509    1585.6050     951.0140   1420.59509    1585.6050     951.0140
   1420.57983    1740.8459    1039.7693   1420.57983    1740.8459    1039.7693
   1420.56458    1773.5177    1054.8363   1420.56458    1773.5177    1054.8363
   1420.54932    1908.4058    1132.5201   1420.54932    1908.4058    1132.5201
   1420.53406    2298.8494    1359.1982   1420.53406    2298.8494    1359.1982
   1420.51880    2586.5083    1524.2184   1420.51880    2586.5083    1524.2184
   1420.50354    2641.2808    1552.7528   1420.50354    2641.2808    1552.7528
   1420.48828    2495.3518    1468.0560   1420.48828    2495.3518    1468.0560
   1420.47302    2296.7852    1349.9884   1420.47302    2296.7852    1349.9884
   1420.45776    2144.3145    1257.4692   1420.45776    2144.3145    1257.4692
   1420.44250    1939.5759    1138.4674   1420.44250    1939.5759    1138.4674
   1420.42725    1705.0996    1000.7633   1420.42725    1705.0996    1000.7633
   1420.41199    1688.2661     988.2272   1420.41199    1688.2661     988.2272
   1420.39673    1739.3054    1016.8359   1420.39673    1739.3054    1016.8359
   1420.38147    1761.9097    1027.9545   1420.38147    1761.9097    1027.9545
   1420.36621    1650.3940     962.4410   1420.36621    1650.3940     962.4410
   1420.35095    1444.4070     843.9573   1420.35095    1444.4070     843.9573
   1420.33569    1222.1870     714.7350   1420.33569    1222.1870     714.7350
   1420.32043     914.7615     537.8545   1420.32043     914.7615     537.8545
   1420.30518     824.2056     485.1694   1420.30518     824.2056     485.1694
   1420.28992     781.4648     459.4472   1420.28992     781.4648     459.4472
   1420.27466     754.1525     442.7765   1420.27466     754.1525     442.7765
   1420.25940     735.6813     432.4241   1420.25940     735.6813     432.4241
   1420.24414     724.7794     424.8059   1420.24414     724.7794     424.8059
   1420.22888     718.2692     420.9050   1420.22888     718.2692     420.9050
   1420.21362     713.4788     418.3423   1420.21362     713.4788     418.3423
   1420.19836     710.8498     414.8165   1420.19836     710.8498     414.8165
   1420.18311     710.1279     413.3739   1420.18311     710.1279     413.3739
   1420.16785     707.2567     412.2490   1420.16785     707.2567     412.2490
   1420.15259     706.2265     410.8129   1420.15259     706.2265     410.8129
   1420.13733     705.3750     409.2938   1420.13733     705.3750     409.2938
   1420.12207     703.9088     407.9786   1420.12207     703.9088     407.9786
   1420.10681     702.3839     407.4360   1420.10681     702.3839     407.4360
   1420.09155     700.7161     406.5096   1420.09155     700.7161     406.5096
   1420.07629     700.5782     405.5342   1420.07629     700.5782     405.5342
   1420.06104     700.9662     404.3775   1420.06104     700.9662     404.3775
   1420.04578     698.7657     404.3007   1420.04578     698.7657     404.3007
   1420.03052     700.3595     403.1610   1420.03052     700.3595     403.1610
   1420.01526     701.6127     403.3539   1420.01526     701.6127     403.3539
   1420.00000     701.7683     403.8506   1420.00000     701.7683     403.8506
   1419.98474     701.9243     404.3475   1419.98474     701.9243     404.3475
   1419.96948     701.9983     401.5305   1419.96948     701.9983     401.5305
   1419.95422     698.1326     399.8713   1419.95422     698.1326     399.8713
   1419.93896     699.0276     399.1497   1419.93896     699.0276     399.1497
   1419.92371     699.2465     397.9711   1419.92371     699.2465     397.9711
   1419.90845     699.1292     398.7484   1419.90845     699.1292     398.7484
   1419.89319     698.5100     397.1891   1419.89319     698.5100     397.1891
   1419.87793     699.0748     396.4637   1419.87793     699.0748     396.4637
   1419.86267     699.0192     395.8507   1419.86267     699.0192     395.8507
   1419.84741     697.8026     395.8238   1419.84741     697.8026     395.8238
   1419.83215     698.9933     394.7569   1419.83215     698.9933     394.7569
   1419.81689     698.8963     394.8708   1419.81689     698.8963     394.8708
   1419.80164     698.6984     394.2795   1419.80164     698.6984     394.2795
   1419.78638     698.4706     393.8056   1419.78638     698.4706     393.8056
   1419.77112     698.3622     393.6764   1419.77112     698.3622     393.6764
   1419.75586     698.8991     393.3447   1419.75586     698.8991     393.3447
   1419.74060     698.8202     392.3093   1419.74060     698.8202     392.3093
   1419.72534     699.7645     392.2530   1419.72534     699.7645     392.2530
   1419.71008     699.0220     391.6921   1419.71008     699.0220     391.6921
   1419.69482     699.5707     392.3075   1419.69482     699.5707     392.3075
   1419.67957     699.6497     390.6092   1419.67957     699.6497     390.6092
   1419.66431     700.6301     390.4787   1419.66431     700.6301     390.4787
   1419.64905     699.6639     390.4562   1419.64905     699.6639     390.4562
   1419.63379     699.3640     389.9933   1419.63379     699.3640     389.9933
   1419.61853     701.0728     389.2424   1419.61853     701.0728     389.2424
   1419.60327     700.5448     388.3914   1419.60327     700.5448     388.3914
   1419.58801     699.4551     388.5718   1419.58801     699.4551     388.5718
   1419.57275     700.4637     388.8887   1419.57275     700.4637     388.8887
   1419.55750     700.3203     388.1659   1419.55750     700.3203     388.1659
   1419.54224     700.3580     387.8796   1419.54224     700.3580     387.8796
   1419.52698     701.5732     388.0486   1419.52698     701.5732     388.0486
   1419.51172     700.7833     387.6045   1419.51172     700.7833     387.6045
   1419.49646     701.5723     387.2422   1419.49646     701.5723     387.2422
   1419.48120     702.0430     386.6980   1419.48120     702.0430     386.6980
   1419.46594     702.4814     386.8248   1419.46594     702.4814     386.8248
   1419.45068     702.2184     386.0642   1419.45068     702.2184     386.0642
   1419.43542     702.2711     386.0341   1419.43542     702.2711     386.0341
   1419.42017     703.1514     386.2465   1419.42017     703.1514     386.2465
   1419.40491     703.1578     385.1820   1419.40491     703.1578     385.1820
   1419.38965     702.6547     385.8602   1419.38965     702.6547     385.8602
   1419.37439     703.6471     385.0290   1419.37439     703.6471     385.0290
   1419.35913     703.5704     385.4036   1419.35913     703.5704     385.4036
   1419.34387     704.3594     385.0251   1419.34387     704.3594     385.0251
   1419.32861     702.9517     385.2717   1419.32861     702.9517     385.2717
   1419.31335     702.8638     384.9875   1419.31335     702.8638     384.9875
   1419.29810     704.8243     384.8379   1419.29810     704.8243     384.8379
   1419.28284     703.6744     384.1321   1419.28284     703.6744     384.1321
   1419.26758     705.7675     384.7798   1419.26758     705.7675     384.7798
   1419.25232     705.8456     384.3846   1419.25232     705.8456     384.3846
   1419.23706     706.8575     384.5559   1419.23706     706.8575     384.5559
   1419.22180     706.3416     384.8862   1419.22180     706.3416     384.8862
   1419.20654     706.1664     383.9659   1419.20654     706.1664     383.9659
   1419.19128     707.2452     384.5408   1419.19128     707.2452     384.5408
   1419.17603     706.6479     384.1504   1419.17603     706.6479     384.1504
   1419.16077     707.3295     383.8177   1419.16077     707.3295     383.8177
   1419.14551     708.2443     383.7612   1419.14551     708.2443     383.7612
   1419.13025     708.8400     384.0204   1419.13025     708.8400     384.0204
   1419.11499     709.3585     384.2278   1419.11499     709.3585     384.2278
   1419.09973     709.7395     384.0204   1419.09973     709.7395     384.0204
   1419.08447     709.9830     383.9200   1419.08447     709.9830     383.9200
   1419.06921     709.9104     384.1870   1419.06921     709.9104     384.1870
   1419.05396     710.9197     383.9211   1419.05396     710.9197     383.9211
   1419.03870     710.3123     384.3672   1419.03870     710.3123     384.3672
   1419.02344     710.2695     384.8745   1419.02344     710.2695     384.8745
   1419.00818     712.4316     384.5329   1419.00818     712.4316     384.5329
   1418.99292     712.6276     384.1509   1418.99292     712.6276     384.1509
   1418.97766     712.4655     384.3350   1418.97766     712.4655     384.3350
   1418.96240     713.5338     384.9173   1418.96240     713.5338     384.9173
   1418.94714     713.7409     384.9493   1418.94714     713.7409     384.9493
   1418.93188     715.1310     384.8297   1418.93188     715.1310     384.8297
   1418.91663     715.2678     384.4201   1418.91663     715.2678     384.4201
   1418.90137     714.2890     385.6072   1418.90137     714.2890     385.6072
   1418.88611     714.8824     385.0132   1418.88611     714.8824     385.0132
   1418.87085     715.9132     385.5180   1418.87085     715.9132     385.5180
   1418.85559     716.2284     386.1537   1418.85559     716.2284     386.1537
   1418.84033     717.4476     386.1859   1418.84033     717.4476     386.1859
   1418.82507     717.9091     386.1514   1418.82507     717.9091     386.1514
   1418.80981     717.8647     386.5048   1418.80981     717.8647     386.5048
   1418.79456     719.1329     386.5137   1418.79456     719.1329     386.5137
   1418.77930     719.0856     386.9713   1418.77930     719.0856     386.9713
   1418.76404     721.2233     386.6582   1418.76404     721.2233     386.6582
   1418.74878     720.3108     387.6798   1418.74878     720.3108     387.6798
   1418.73352     720.9269     387.2339   1418.73352     720.9269     387.2339
   1418.71826     721.7997     388.0066   1418.71826     721.7997     388.0066
   1418.70300     721.7244     388.5078   1418.70300     721.7244     388.5078
   1418.68774     723.3782     388.9409   1418.68774     723.3782     388.9409
   1418.67249     723.4207     389.2464   1418.67249     723.4207     389.2464
   1418.65723     723.7159     389.2414   1418.65723     723.7159     389.2414
   1418.64197     724.6836     390.3257   1418.64197     724.6836     390.3257
   1418.62671     725.0524     390.0124   1418.62671     725.0524     390.0124
   1418.61145     726.0508     389.8577   1418.61145     726.0508     389.8577
   1418.59619     727.9048     390.2427   1418.59619     727.9048     390.2427
   1418.58093     726.1626     390.9414   1418.58093     726.1626     390.9414
   1418.56567     727.4479     391.0150   1418.56567     727.4479     391.0150
   1418.55042     729.3028     391.7191   1418.55042     729.3028     391.7191
   1418.53516     729.4031     391.5389   1418.53516     729.4031     391.5389
   1418.51990     730.1090     392.7048   1418.51990     730.1090     392.7048
   1418.50464     729.9155     393.1675   1418.50464     729.9155     393.1675
   1418.48938     731.2768     393.7385   1418.48938     731.2768     393.7385
   1418.47412     731.2759     394.0873   1418.47412     731.2759     394.0873
   1418.45886     733.4972     394.2458   1418.45886     733.4972     394.2458
   1418.44360     734.4149     394.9525   1418.44360     734.4149     394.9525
   1418.42834     734.6665     395.8451   1418.42834     734.6665     395.8451
   1418.41309     735.0929     396.0305   1418.41309     735.0929     396.0305
   1418.39783     735.5815     396.6805   1418.39783     735.5815     396.6805
   1418.38257     735.9565     396.7136   1418.38257     735.9565     396.7136
   1418.36731     735.9514     398.0498   1418.36731     735.9514     398.0498
   1418.35205     737.5697     398.6872   1418.35205     737.5697     398.6872
   1418.33679     736.7920     398.8345   1418.33679     736.7920     398.8345
   1418.32153     740.3500     399.1698   1418.32153     740.3500     399.1698
   1418.30627     740.0399     400.1341   1418.30627     740.0399     400.1341
   1418.29102     741.1642     400.1623   1418.29102     741.1642     400.1623
   1418.27576     740.5362     401.1082   1418.27576     740.5362     401.1082
   1418.26050     741.8519     401.7863   1418.26050     741.8519     401.7863
   1418.24524     745.6797     402.9415   1418.24524     745.6797     402.9415
   1418.22998     742.4416     402.9501   1418.22998     742.4416     402.9501
   1418.21472     744.5890     404.0150   1418.21472     744.5890     404.0150
   1418.19946     745.8613     404.8669   1418.19946     745.8613     404.8669
   1418.18420     746.2613     405.1317   1418.18420     746.2613     405.1317
   1418.16895     746.5281     405.8402   1418.16895     746.5281     405.8402
   1418.15369     747.6384     405.8307   1418.15369     747.6384     405.8307
   1418.13843     749.0156     406.8019   1418.13843     749.0156     406.8019
   1418.12317     748.7634     407.6451   1418.12317     748.7634     407.6451
   1418.10791     750.3695     408.1868   1418.10791     750.3695     408.1868
   1418.09265     751.1170     408.8152   1418.09265     751.1170     408.8152
   1418.07739     751.7465     409.6545   1418.07739     751.7465     409.6545
   1418.06213     753.1176     410.9608   1418.06213     753.1176     410.9608
   1418.04688     753.2905     411.2942   1418.04688     753.2905     411.2942
   1418.03162     753.7780     411.8201   1418.03162     753.7780     411.8201
   1418.01636     754.0296     412.6606   1418.01636     754.0296     412.6606
   1418.00110     755.6970     413.5819   1418.00110     755.6970     413.5819
   1417.98584     757.0226     414.3982   1417.98584     757.0226     414.3982
   1417.97058     758.2679     414.3174   1417.97058     758.2679     414.3174
   1417.95532     758.2404     415.9468   1417.95532     758.2404     415.9468
   1417.94006     757.9206     416.7423   1417.94006     757.9206     416.7423
   1417.92480     761.7391     417.8286   1417.92480     761.7391     417.8286
   1417.90955     760.3180     418.9569   1417.90955     760.3180     418.9569
   1417.89429     761.6081     419.3875   1417.89429     761.6081     419.3875
   1417.87903     761.5541     419.9235   1417.87903     761.5541     419.9235
   1417.86377     764.4036     421.5292   1417.86377     764.4036     421.5292
   1417.84851     764.0262     421.9185   1417.84851     764.0262     421.9185
   1417.83325     765.0463     423.2529   1417.83325     765.0463     423.2529
   1417.81799     766.2751     424.1723   1417.81799     766.2751     424.1723
   1417.80273     766.6783     424.1204   1417.80273     766.6783     424.1204
   1417.78748     767.5671     426.0844   1417.78748     767.5671     426.0844
   1417.77222     768.5160     427.0915   1417.77222     768.5160     427.0915
   1417.75696     770.0035     427.6639   1417.75696     770.0035     427.6639
   1417.74170     770.9335     428.1945   1417.74170     770.9335     428.1945
   1417.72644     771.1761     429.2939   1417.72644     771.1761     429.2939
   1417.71118     771.4760     430.2255   1417.71118     771.4760     430.2255
   1417.69592     774.2897     431.3723   1417.69592     774.2897     431.3723
   1417.68066     775.3705     432.3480   1417.68066     775.3705     432.3480
   1417.66541     775.2991     433.5997   1417.66541     775.2991     433.5997
   1417.65015     776.0056     434.8946   1417.65015     776.0056     434.8946
   1417.63489     776.8787     435.2827   1417.63489     776.8787     435.2827
   1417.61963     777.5667     436.1570   1417.61963     777.5667     436.1570
   1417.60437     778.9062     437.3343   1417.60437     778.9062     437.3343
   1417.58911     778.1376     438.6794   1417.58911     778.1376     438.6794
   1417.57385     779.8606     439.8165   1417.57385     779.8606     439.8165
   1417.55859     780.5258     441.3417   1417.55859     780.5258     441.3417
   1417.54333     781.6423     441.3781   1417.54333     781.6423     441.3781
   1417.52808     782.6278     442.0796   1417.52808     782.6278     442.0796
   1417.51282     783.7383     443.9620   1417.51282     783.7383     443.9620
   1417.49756     783.2654     444.9375   1417.49756     783.2654     444.9375
   1417.48230     784.9281     446.4664   1417.48230     784.9281     446.4664
   1417.46704     785.0512     446.7038   1417.46704     785.0512     446.7038
   1417.45178     786.4408     447.8838   1417.45178     786.4408     447.8838
   1417.43652     787.6566     448.8699   1417.43652     787.6566     448.8699
   1417.42126     788.4319     450.2174   1417.42126     788.4319     450.2174
   1417.40601     789.4403     451.1909   1417.40601     789.4403     451.1909
   1417.39075     790.6094     452.3504   1417.39075     790.6094     452.3504
   1417.37549     790.8168     453.6115   1417.37549     790.8168     453.6115
   1417.36023     790.5771     454.1699   1417.36023     790.5771     454.1699
   1417.34497     792.6094     455.4127   1417.34497     792.6094     455.4127
   1417.32971     793.4655     456.1170   1417.32971     793.4655     456.1170
   1417.31445     794.4593     457.2442   1417.31445     794.4593     457.2442
   1417.29919     794.7419     458.4604   1417.29919     794.7419     458.4604
   1417.28394     795.0377     460.7959   1417.28394     795.0377     460.7959
   1417.26868     795.9026     460.9922   1417.26868     795.9026     460.9922
   1417.25342     797.1624     461.8585   1417.25342     797.1624     461.8585
   1417.23816     796.6693     463.3736   1417.23816     796.6693     463.3736
   1417.22290     798.4958     465.2306   1417.22290     798.4958     465.2306
   1417.20764     797.7620     465.4366   1417.20764     797.7620     465.4366
   1417.19238     799.5848     466.6737   1417.19238     799.5848     466.6737
   1417.17712     799.7831     467.6392   1417.17712     799.7831     467.6392
   1417.16187     799.9762     468.1405   1417.16187     799.9762     468.1405
   1417.14661     800.7402     470.2100   1417.14661     800.7402     470.2100
   1417.13135     800.4422     471.5804   1417.13135     800.4422     471.5804
   1417.11609     802.0524     471.9052   1417.11609     802.0524     471.9052
   1417.10083     802.6793     473.1549   1417.10083     802.6793     473.1549
   1417.08557     803.1497     474.2800   1417.08557     803.1497     474.2800
   1417.07031     804.2437     474.6939   1417.07031     804.2437     474.6939
   1417.05505     804.8242     476.5251   1417.05505     804.8242     476.5251
   1417.03979     805.7715     478.2516   1417.03979     805.7715     478.2516
   1417.02454     805.5511     479.0112   1417.02454     805.5511     479.0112
   1417.00928     806.1925     480.4256   1417.00928     806.1925     480.4256
   1416.99402     805.8386     481.3384   1416.99402     805.8386     481.3384
   1416.97876     807.7214     481.8896   1416.97876     807.7214     481.8896
   1416.96350     807.6533     482.7738   1416.96350     807.6533     482.7738
   1416.94824     807.3990     484.7870   1416.94824     807.3990     484.7870
   1416.93298     808.2173     484.7476   1416.93298     808.2173     484.7476
   1416.91772     808.7794     486.1721   1416.91772     808.7794     486.1721
   1416.90247     808.8220     487.5413   1416.90247     808.8220     487.5413
   1416.88721     809.2314     488.4610   1416.88721     809.2314     488.4610
   1416.87195     808.9042     489.3678   1416.87195     808.9042     489.3678
   1416.85669     810.7241     490.5066   1416.85669     810.7241     490.5066
   1416.84143     810.9069     491.3278   1416.84143     810.9069     491.3278
   1416.82617     810.3150     492.0060   1416.82617     810.3150     492.0060
   1416.81091     811.0870     492.9600   1416.81091     811.0870     492.9600
   1416.79565     811.2767     493.9437   1416.79565     811.2767     493.9437
   1416.78040     811.9029     494.8382   1416.78040     811.9029     494.8382
   1416.76514     811.3047     495.5560   1416.76514     811.3047     495.5560
   1416.74988     812.7821     496.8634   1416.74988     812.7821     496.8634
   1416.73462     813.5095     498.0341   1416.73462     813.5095     498.0341
   1416.71936     813.1943     499.7527   1416.71936     813.1943     499.7527
   1416.70410     813.1066     499.8385   1416.70410     813.1066     499.8385
   1416.68884     813.4385     500.5674   1416.68884     813.4385     500.5674
   1416.67358     813.5594     501.0222   1416.67358     813.5594     501.0222
   1416.65833     813.0526     501.8654   1416.65833     813.0526     501.8654
   1416.64307     811.1713     503.4552   1416.64307     811.1713     503.4552
   1416.62781     813.2891     504.5900   1416.62781     813.2891     504.5900
   1416.61255     813.7302     504.8250   1416.61255     813.7302     504.8250
   1416.59729     813.9365     505.6115   1416.59729     813.9365     505.6115
   1416.58203     814.3235     505.9085   1416.58203     814.3235     505.9085
   1416.56677     813.4364     506.8180   1416.56677     813.4364     506.8180
   1416.55151     813.6802     506.9388   1416.55151     813.6802     506.9388
   1416.53625     813.0566     508.8010   1416.53625     813.0566     508.8010
   1416.52100     814.0263     509.5500   1416.52100     814.0263     509.5500
   1416.50574     812.2957     509.4517   1416.50574     812.2957     509.4517
   1416.49048     813.9848     510.1422   1416.49048     813.9848     510.1422
   1416.47522     814.4876     510.4499   1416.47522     814.4876     510.4499
   1416.45996     814.2179     511.8234   1416.45996     814.2179     511.8234
   1416.44470     813.5012     512.4877   1416.44470     813.5012     512.4877
   1416.42944     813.8904     513.2596   1416.42944     813.8904     513.2596
   1416.41418     813.0035     513.0821   1416.41418     813.0035     513.0821
   1416.39893     814.6351     514.5406   1416.39893     814.6351     514.5406
   1416.38367     811.6350     514.0511   1416.38367     811.6350     514.0511
   1416.36841     812.5795     514.1492   1416.36841     812.5795     514.1492
   1416.35315     811.9094     514.7884   1416.35315     811.9094     514.7884
   1416.33789     812.5608     515.8116   1416.33789     812.5608     515.8116
   1416.32263     811.7272     516.7314   1416.32263     811.7272     516.7314
   1416.30737     811.2988     516.9361   1416.30737     811.2988     516.9361
   1416.29211     811.8058     517.5867   1416.29211     811.8058     517.5867
   1416.27686     810.2224     517.9043   1416.27686     810.2224     517.9043
   1416.26160     811.1674     517.8025   1416.26160     811.1674     517.8025
   1416.24634     810.8306     518.0074   1416.24634     810.8306     518.0074
   1416.23108     810.5573     518.2550   1416.23108     810.5573     518.2550
   1416.21582     809.1254     518.8764   1416.21582     809.1254     518.8764
   1416.20056     808.8580     518.7681   1416.20056     808.8580     518.7681
   1416.18530     809.2672     519.8512   1416.18530     809.2672     519.8512
   1416.17004     807.6625     520.0915   1416.17004     807.6625     520.0915
   1416.15479     808.3469     520.7710   1416.15479     808.3469     520.7710
   1416.13953     807.7115     520.9358   1416.13953     807.7115     520.9358
   1416.12427     805.3633     520.2495   1416.12427     805.3633     520.2495
   1416.10901     806.3625     520.6019   1416.10901     806.3625     520.6019
   1416.09375     805.6030     520.3387   1416.09375     805.6030     520.3387
   1416.07849     805.0656     521.0575   1416.07849     805.0656     521.0575
   1416.06323     805.1237     521.5656   1416.06323     805.1237     521.5656
   1416.04797     804.2418     520.9711   1416.04797     804.2418     520.9711
   1416.03271     804.3941     522.5527   1416.03271     804.3941     522.5527
   1416.01746     802.8870     521.3203   1416.01746     802.8870     521.3203
   1416.00220     802.5555     521.8877   1416.00220     802.5555     521.8877
   1415.98694     801.8459     521.6169   1415.98694     801.8459     521.6169
   1415.97168     801.6954     521.3724   1415.97168     801.6954     521.3724
   1415.95642     800.1508     521.4333   1415.95642     800.1508     521.4333
   1415.94116     799.6988     522.3906   1415.94116     799.6988     522.3906
   1415.92590     799.0364     521.3127   1415.92590     799.0364     521.3127
   1415.91064     797.5179     521.8761   1415.91064     797.5179     521.8761
   1415.89539     797.2162     522.0280   1415.89539     797.2162     522.0280
   1415.88013     796.1869     522.3689   1415.88013     796.1869     522.3689
   1415.86487     796.0043     522.2971   1415.86487     796.0043     522.2971
   1415.84961     795.6957     521.3643   1415.84961     795.6957     521.3643
   1415.83435     795.2685     521.9265   1415.83435     795.2685     521.9265
   1415.81909     793.9393     521.6890   1415.81909     793.9393     521.6890
   1415.80383     793.2454     522.4418   1415.80383     793.2454     522.4418
   1415.78857     792.2697     521.5076   1415.78857     792.2697     521.5076
   1415.77332     790.2005     521.0689   1415.77332     790.2005     521.0689
   1415.75806     790.6456     521.0266   1415.75806     790.6456     521.0266
   1415.74280     789.2299     521.8527   1415.74280     789.2299     521.8527
   1415.72754     789.0811     521.0293   1415.72754     789.0811     521.0293
   1415.71228     788.5709     521.0099   1415.71228     788.5709     521.0099
   1415.69702     786.3153     521.4839   1415.69702     786.3153     521.4839
   1415.68176     786.5500     521.0330   1415.68176     786.5500     521.0330
   1415.66650     784.9907     520.7166   1415.66650     784.9907     520.7166
   1415.65125     784.9513     519.8564   1415.65125     784.9513     519.8564
   1415.63599     783.8172     520.4203   1415.63599     783.8172     520.4203
   1415.62073     783.6517     520.6141   1415.62073     783.6517     520.6141
   1415.60547     781.8219     519.2881   1415.60547     781.8219     519.2881
   1415.59021     780.9077     520.1716   1415.59021     780.9077     520.1716
   1415.57495     780.7014     519.5134   1415.57495     780.7014     519.5134
   1415.55969     780.5710     519.6959   1415.55969     780.5710     519.6959
   1415.54443     778.1196     519.5244   1415.54443     778.1196     519.5244
   1415.52917     776.4191     517.9333   1415.52917     776.4191     517.9333
   1415.51392     776.3004     519.0895   1415.51392     776.3004     519.0895
   1415.49866     774.7709     518.4251   1415.49866     774.7709     518.4251
   1415.48340     774.8297     518.1879   1415.48340     774.8297     518.1879
   1415.46814     773.7045     518.1292   1415.46814     773.7045     518.1292
   1415.45288     771.8953     518.5023   1415.45288     771.8953     518.5023
   1415.43762     772.0755     516.9747   1415.43762     772.0755     516.9747
   1415.42236     770.2749     516.4537   1415.42236     770.2749     516.4537
   1415.40710     769.2906     515.6437   1415.40710     769.2906     515.6437
   1415.39185     767.8682     516.4131   1415.39185     767.8682     516.4131
   1415.37659     767.1667     515.8860   1415.37659     767.1667     515.8860
   1415.36133     766.1553     514.9802   1415.36133     766.1553     514.9802
   1415.34607     764.7556     514.6656   1415.34607     764.7556     514.6656
   1415.33081     762.6807     515.1566   1415.33081     762.6807     515.1566
   1415.31555     762.2515     514.2150   1415.31555     762.2515     514.2150
   1415.30029     759.9087     513.3574   1415.30029     759.9087     513.3574
   1415.28503     760.2133     513.8671   1415.28503     760.2133     513.8671
   1415.26978     758.8362     512.4865   1415.26978     758.8362     512.4865
   1415.25452     757.2305     513.6760   1415.25452     757.2305     513.6760
   1415.23926     755.5121     512.6625   1415.23926     755.5121     512.6625
   1415.22400     754.1298     512.4764   1415.22400     754.1298     512.4764
   1415.20874     753.7155     511.7158   1415.20874     753.7155     511.7158
   1415.19348     750.9510     511.5001   1415.19348     750.9510     511.5001
   1415.17822     750.4161     511.0742   1415.17822     750.4161     511.0742
   1415.16296     748.0520     509.2616   1415.16296     748.0520     509.2616
   1415.14771     747.5516     509.0344   1415.14771     747.5516     509.0344
   1415.13245     746.2919     508.9585   1415.13245     746.2919     508.9585
   1415.11719     745.1600     508.6754   1415.11719     745.1600     508.6754
   1415.10193     743.3448     507.0021   1415.10193     743.3448     507.0021
   1415.08667     742.5372     507.2105   1415.08667     742.5372     507.2105
   1415.07141     741.1661     506.3874   1415.07141     741.1661     506.3874
   1415.05615     738.9484     505.8290   1415.05615     738.9484     505.8290
   1415.04089     739.1429     505.1253   1415.04089     739.1429     505.1253
   1415.02563     736.8206     505.0108   1415.02563     736.8206     505.0108
   1415.01038     734.2115     504.2610   1415.01038     734.2115     504.2610
   1414.99512     733.0680     502.3261   1414.99512     733.0680     502.3261
   1414.97986     732.1943     502.2186   1414.97986     732.1943     502.2186
   1414.96460     730.4358     500.9776   1414.96460     730.4358     500.9776
   1414.94934     729.4829     501.1477   1414.94934     729.4829     501.1477
   1414.93408     727.5604     501.1382   1414.93408     727.5604     501.1382
   1414.91882     726.0182     498.7740   1414.91882     726.0182     498.7740
   1414.90356     723.7415     499.0339   1414.90356     723.7415     499.0339
   1414.88831     723.0270     498.1451   1414.88831     723.0270     498.1451
   1414.87305     720.7562     496.8880   1414.87305     720.7562     496.8880
   1414.85779     718.6928     496.4820   1414.85779     718.6928     496.4820
   1414.84253     716.2742     495.9948   1414.84253     716.2742     495.9948
   1414.82727     715.4061     495.0007   1414.82727     715.4061     495.0007
   1414.81201     713.7061     494.3706   1414.81201     713.7061     494.3706
   1414.79675     712.0053     493.4861   1414.79675     712.0053     493.4861
   1414.78149     709.8709     492.2974   1414.78149     709.8709     492.2974
   1414.76624     708.7032     491.3261   1414.76624     708.7032     491.3261
   1414.75098     705.7651     490.7801   1414.75098     705.7651     490.7801
   1414.73572     703.7314     489.9706   1414.73572     703.7314     489.9706
   1414.72046     701.6205     488.9187   1414.72046     701.6205     488.9187
   1414.70520     700.2679     487.2058   1414.70520     700.2679     487.2058
   1414.68994     699.0906     487.0225   1414.68994     699.0906     487.0225
   1414.67468     696.1342     486.6992   1414.67468     696.1342     486.6992
   1414.65942     695.5236     484.4170   1414.65942     695.5236     484.4170
   1414.64417     692.4388     483.4149   1414.64417     692.4388     483.4149
   1414.62891     690.4503     482.2440   1414.62891     690.4503     482.2440
   1414.61365     688.0798     481.6553   1414.61365     688.0798     481.6553
   1414.59839     686.3646     480.7357   1414.59839     686.3646     480.7357
   1414.58313     685.3323     479.6340   1414.58313     685.3323     479.6340
   1414.56787     681.6311     478.5844   1414.56787     681.6311     478.5844
   1414.55261     680.1360     476.9313   1414.55261     680.1360     476.9313
   1414.53735     678.5309     476.1999   1414.53735     678.5309     476.1999
   1414.52209     674.1811     475.7016   1414.52209     674.1811     475.7016
   1414.50684     673.3745     474.5511   1414.50684     673.3745     474.5511
   1414.49158     671.8775     472.5286   1414.49158     671.8775     472.5286
   1414.47632     669.8448     471.0865   1414.47632     669.8448     471.0865
   1414.46106     667.5241     471.0168   1414.46106     667.5241     471.0168
   1414.44580     664.3055     468.6604   1414.44580     664.3055     468.6604
   1414.43054     662.5719     468.0020   1414.43054     662.5719     468.0020
   1414.41528     661.2435     467.1076   1414.41528     661.2435     467.1076
   1414.40002     658.8828     464.9839   1414.40002     658.8828     464.9839
   1414.38477     654.9167     463.3246   1414.38477     654.9167     463.3246
   1414.36951     653.8699     462.5767   1414.36951     653.8699     462.5767
   1414.35425     649.8775     461.5833   1414.35425     649.8775     461.5833
   1414.33899     648.9318     459.8675   1414.33899     648.9318     459.8675
   1414.32373     646.6864     458.5156   1414.32373     646.6864     458.5156
   1414.30847     644.3209     457.7092   1414.30847     644.3209     457.7092
   1414.29321     641.1052     455.8711   1414.29321     641.1052     455.8711
   1414.27795     639.0358     454.5396   1414.27795     639.0358     454.5396
   1414.26270     636.7657     453.4600   1414.26270     636.7657     453.4600
   1414.24744     634.7451     451.8546   1414.24744     634.7451     451.8546
   1414.23218     631.8219     450.7173   1414.23218     631.8219     450.7173
   1414.21692     629.3859     449.4124   1414.21692     629.3859     449.4124
   1414.20166     626.3256     447.9211   1414.20166     626.3256     447.9211
   1414.18640     624.5541     446.2254   1414.18640     624.5541     446.2254
   1414.17114     620.8072     445.0794   1414.17114     620.8072     445.0794
   1414.15588     619.3125     443.3080   1414.15588     619.3125     443.3080
   1414.14062     616.7213     442.5400   1414.14062     616.7213     442.5400
   1414.12537     614.3387     440.1340   1414.12537     614.3387     440.1340
   1414.11011     611.4876     438.3837   1414.11011     611.4876     438.3837
   1414.09485     608.6588     437.0881   1414.09485     608.6588     437.0881
   1414.07959     606.6661     435.7319   1414.07959     606.6661     435.7319
   1414.06433     604.5541     434.1841   1414.06433     604.5541     434.1841
   1414.04907     600.7822     432.9559   1414.04907     600.7822     432.9559
   1414.03381     597.3538     431.1850   1414.03381     597.3538     431.1850
   1414.01855     595.5906     429.5351   1414.01855     595.5906     429.5351
   1414.00330     624.3613     437.0783   1414.00330     624.3613     437.0783
   1413.98804     593.0079     426.2682   1413.98804     593.0079     426.2682
   1413.97278     587.1965     424.8214   1413.97278     587.1965     424.8214
   1413.95752     585.3239     423.1071   1413.95752     585.3239     423.1071
   1413.94226     582.0270     421.7008   1413.94226     582.0270     421.7008
   1413.92700     578.7483     419.2635   1413.92700     578.7483     419.2635
   1413.91174     576.3867     417.6985   1413.91174     576.3867     417.6985
   1413.89648     573.1886     416.6328   1413.89648     573.1886     416.6328
   1413.88123     570.6402     414.8987   1413.88123     570.6402     414.8987
   1413.86597     568.5042     412.9766   1413.86597     568.5042     412.9766
   1413.85071     564.6329     411.4705   1413.85071     564.6329     411.4705
   1413.83545     562.5650     409.8322   1413.83545     562.5650     409.8322
   1413.82019     559.3970     407.4967   1413.82019     559.3970     407.4967
   1413.80493     556.4788     406.1503   1413.80493     556.4788     406.1503
   1413.78967     553.2505     404.6210   1413.78967     553.2505     404.6210
   1413.77441     551.0603     402.3892   1413.77441     551.0603     402.3892
   1413.75916     548.3337     401.3444   1413.75916     548.3337     401.3444
   1413.74390     545.1906     400.3202   1413.74390     545.1906     400.3202
   1413.72864     542.5549     397.9949   1413.72864     542.5549     397.9949
   1413.71338     539.4143     396.4944   1413.71338     539.4143     396.4944
   1413.69812     536.7894     394.6387   1413.69812     536.7894     394.6387
   1413.68286     534.5196     392.6562   1413.68286     534.5196     392.6562
   1413.66760     531.7405     391.3458   1413.66760     531.7405     391.3458
   1413.65234     529.4759     389.0835   1413.65234     529.4759     389.0835
   1413.63708     526.0125     388.3251   1413.63708     526.0125     388.3251
   1413.62183     522.9453     386.6644   1413.62183     522.9453     386.6644
   1413.60657     519.1270     384.7473   1413.60657     519.1270     384.7473
   1413.59131     516.8262     383.0424   1413.59131     516.8262     383.0424
   1413.57605     515.0110     381.3112   1413.57605     515.0110     381.3112
   1413.56079     512.9271     380.4007   1413.56079     512.9271     380.4007
   1413.54553     509.1465     378.0263   1413.54553     509.1465     378.0263
   1413.53027     506.2461     376.0419   1413.53027     506.2461     376.0419
   1413.51501     502.4920     375.2251   1413.51501     502.4920     375.2251
   1413.49976     500.6867     372.6750   1413.49976     500.6867     372.6750
   1413.48450     497.8138     371.2612   1413.48450     497.8138     371.2612
   1413.46924     494.4442     369.7152   1413.46924     494.4442     369.7152
   1413.45398     491.7757     368.3840   1413.45398     491.7757     368.3840
   1413.43872     489.7438     366.5935   1413.43872     489.7438     366.5935
   1413.42346     487.4154     364.8531   1413.42346     487.4154     364.8531
   1413.40820     484.3387     363.2074   1413.40820     484.3387     363.2074
   1413.39294     481.5486     361.9853   1413.39294     481.5486     361.9853
   1413.37769     479.9401     359.4705   1413.37769     479.9401     359.4705
   1413.36243     475.7108     358.3013   1413.36243     475.7108     358.3013
   1413.34717     473.5715     357.4424   1413.34717     473.5715     357.4424
   1413.33191     471.3222     355.2435   1413.33191     471.3222     355.2435
   1413.31665     467.6548     353.4616   1413.31665     467.6548     353.4616
   1413.30139     466.0079     352.3632   1413.30139     466.0079     352.3632
   1413.28613     463.3593     350.6614   1413.28613     463.3593     350.6614
   1413.27087     461.3322     349.7790   1413.27087     461.3322     349.7790
   1413.25562     458.2038     347.9290   1413.25562     458.2038     347.9290
   1413.24036     455.8943     346.6850   1413.24036     455.8943     346.6850
   1413.22510     453.7171     345.8810   1413.22510     453.7171     345.8810
   1413.20984     450.8865     343.8997   1413.20984     450.8865     343.8997
   1413.19458     448.9665     342.7590   1413.19458     448.9665     342.7590
   1413.17932     446.2375     340.9674   1413.17932     446.2375     340.9674
   1413.16406     444.1423     339.5137   1413.16406     444.1423     339.5137
   1413.14880     441.6618     339.0179   1413.14880     441.6618     339.0179
   1413.13354     438.6098     338.0648   1413.13354     438.6098     338.0648
   1413.11829     436.8707     336.2574   1413.11829     436.8707     336.2574
   1413.10303     434.4141     335.0474   1413.10303     434.4141     335.0474
   1413.08777     432.4582     333.8440   1413.08777     432.4582     333.8440
   1413.07251     430.2362     332.5551   1413.07251     430.2362     332.5551
   1413.05725     428.4167     331.4607   1413.05725     428.4167     331.4607
   1413.04199     425.6301     330.4113   1413.04199     425.6301     330.4113
   1413.02673     424.0601     329.3173   1413.02673     424.0601     329.3173
   1413.01147     421.6360     328.6415   1413.01147     421.6360     328.6415
   1412.99622     419.5417     327.5656   1412.99622     419.5417     327.5656
   1412.98096     418.3128     326.7520   1412.98096     418.3128     326.7520
   1412.96570     415.1979     325.6750   1412.96570     415.1979     325.6750
   1412.95044     413.6324     324.4376   1412.95044     413.6324     324.4376
   1412.93518     411.6487     324.0726   1412.93518     411.6487     324.0726
   1412.91992     409.8909     322.8013   1412.91992     409.8909     322.8013
   1412.90466     408.1785     322.4874   1412.90466     408.1785     322.4874
   1412.88940     407.1490     321.5698   1412.88940     407.1490     321.5698
   1412.87415     404.9570     321.3288   1412.87415     404.9570     321.3288
   1412.85889     402.6088     320.3242   1412.85889     402.6088     320.3242
   1412.84363     401.3050     319.7623   1412.84363     401.3050     319.7623
   1412.82837     399.7327     319.2523   1412.82837     399.7327     319.2523
   1412.81311     398.7031     318.7858   1412.81311     398.7031     318.7858
   1412.79785     396.4765     318.3309   1412.79785     396.4765     318.3309
   1412.78259     395.5472     317.7515   1412.78259     395.5472     317.7515
   1412.76733     394.1216     317.3189   1412.76733     394.1216     317.3189
   1412.75208     392.3963     316.7846   1412.75208     392.3963     316.7846
   1412.73682     391.3934     316.2165   1412.73682     391.3934     316.2165
   1412.72156     390.1273     316.3668   1412.72156     390.1273     316.3668
   1412.70630     389.0540     315.6596   1412.70630     389.0540     315.6596
   1412.69104     388.2292     315.8720   1412.69104     388.2292     315.8720
   1412.67578     387.1133     315.7438   1412.67578     387.1133     315.7438
   1412.66052     385.3768     315.7015   1412.66052     385.3768     315.7015
   1412.64526     384.5083     316.1626   1412.64526     384.5083     316.1626
   1412.63000     383.7887     315.9745   1412.63000     383.7887     315.9745
   1412.61475     382.5550     315.3685   1412.61475     382.5550     315.3685
   1412.59949     381.7874     315.5953   1412.59949     381.7874     315.5953
   1412.58423     381.1066     316.5709   1412.58423     381.1066     316.5709
   1412.56897     379.5958     316.0611   1412.56897     379.5958     316.0611
   1412.55371     379.5765     316.3269   1412.55371     379.5765     316.3269
   1412.53845     378.5635     317.0894   1412.53845     378.5635     317.0894
   1412.52319     377.9682     317.2196   1412.52319     377.9682     317.2196
   1412.50793     377.2204     317.3542   1412.50793     377.2204     317.3542
   1412.49268     377.8098     318.2416   1412.49268     377.8098     318.2416
   1412.47742     377.2580     318.3916   1412.47742     377.2580     318.3916
   1412.46216     376.4053     319.2635   1412.46216     376.4053     319.2635
   1412.44690     376.2739     319.5779   1412.44690     376.2739     319.5779
   1412.43164     375.7861     320.3110   1412.43164     375.7861     320.3110
   1412.41638     375.3921     321.0060   1412.41638     375.3921     321.0060
   1412.40112     375.0584     321.3643   1412.40112     375.0584     321.3643
   1412.38586     374.7404     322.5187   1412.38586     374.7404     322.5187
   1412.37061     375.4417     322.8897   1412.37061     375.4417     322.8897
   1412.35535     375.4201     323.8883   1412.35535     375.4201     323.8883
   1412.34009     375.3673     324.9975   1412.34009     375.3673     324.9975
   1412.32483     375.7527     326.1364   1412.32483     375.7527     326.1364
   1412.30957     375.4540     327.2113   1412.30957     375.4540     327.2113
   1412.29431     375.4836     328.2007   1412.29431     375.4836     328.2007
   1412.27905     376.3089     328.7085   1412.27905     376.3089     328.7085
   1412.26379     376.5917     330.9745   1412.26379     376.5917     330.9745
   1412.24854     376.8355     332.1304   1412.24854     376.8355     332.1304
   1412.23328     377.1259     333.0685   1412.23328     377.1259     333.0685
   1412.21802     377.4722     334.2742   1412.21802     377.4722     334.2742
   1412.20276     378.2785     336.2498   1412.20276     378.2785     336.2498