#     FILENAME=!Skynet_57528_lach-cc-89_20539_20935.cyb.fits
#     BASENAME=Skynet_57528_lach-cc-89_20539_20935
#     SRC_NAME=lach-cc-89
#     OBSERVER=ccmadison16_9505
#     DATE_OBS=2016-05-20T16:19:32.430
#        OBSID=20539
#      SCANNUM=20935
#          MJD=57528.6813
#          UTC=58861
#     SCANTYPE=track
#     DATAMODE=HIRES
#     TUNEFREQ=1420.0000
# Actual_FREQ1=1420.0000
# Actual_FREQ2=1420.0000
#    LO1Tuning=6870.000
#     RFFILTER=1355_1435
#        OBSBW=-15.6250
#        NCHAN=1024 
#        FOCUS=37.0709
#           RA=21:07:53.49
#          DEC=47:35:51.05
#      RA(hrs)=21.131500
#     DEC(deg)=47.597500
#    AZIM(deg)=309.001
#    ELEV(deg)=29.210
#     IFattens=11.00, 10.00
#      WARNING=None
#    TCAL_XL1=7.9635
#    TCAL_YR1=9.1340
#    TCAL_XL2=7.9635
#    TCAL_YR2=9.1340
#     TRX_XL1=11.7060
#     TRX_YR1=11.7060
#     TRX_XL2=11.7060
#     TRX_YR2=11.7060
#        TAVE=1.0000
#Freq1(MHz)          XL1          YR1  Freq2(MHz)          XL2          YR2 

   1427.81250     296.2334     243.5347   1427.81250     296.2334     243.5347
   1427.79724     297.1323     244.0819   1427.79724     297.1323     244.0819
   1427.78198     297.9697     244.4584   1427.78198     297.9697     244.4584
   1427.76672     298.1331     245.2550   1427.76672     298.1331     245.2550
   1427.75146     298.9698     245.7160   1427.75146     298.9698     245.7160
   1427.73621     299.8625     246.4590   1427.73621     299.8625     246.4590
   1427.72095     300.5622     247.0143   1427.72095     300.5622     247.0143
   1427.70569     301.1238     248.3398   1427.70569     301.1238     248.3398
   1427.69043     302.1193     248.5728   1427.69043     302.1193     248.5728
   1427.67517     302.5875     249.5915   1427.67517     302.5875     249.5915
   1427.65991     303.8485     250.4055   1427.65991     303.8485     250.4055
   1427.64465     304.8568     251.5262   1427.64465     304.8568     251.5262
   1427.62939     306.0446     252.4121   1427.62939     306.0446     252.4121
   1427.61414     306.7726     252.9334   1427.61414     306.7726     252.9334
   1427.59888     307.7755     254.1801   1427.59888     307.7755     254.1801
   1427.58362     309.2367     255.3905   1427.58362     309.2367     255.3905
   1427.56836     310.1913     256.0166   1427.56836     310.1913     256.0166
   1427.55310     311.5085     257.4922   1427.55310     311.5085     257.4922
   1427.53784     312.5656     258.0625   1427.53784     312.5656     258.0625
   1427.52258     314.0169     259.6880   1427.52258     314.0169     259.6880
   1427.50732     315.1954     260.9302   1427.50732     315.1954     260.9302
   1427.49207     316.8449     261.8212   1427.49207     316.8449     261.8212
   1427.47681     318.2183     262.8158   1427.47681     318.2183     262.8158
   1427.46155     319.5925     264.2932   1427.46155     319.5925     264.2932
   1427.44629     320.9800     265.7191   1427.44629     320.9800     265.7191
   1427.43103     322.3171     266.8835   1427.43103     322.3171     266.8835
   1427.41577     324.4356     267.8791   1427.41577     324.4356     267.8791
   1427.40051     325.7160     269.6868   1427.40051     325.7160     269.6868
   1427.38525     327.8065     271.1726   1427.38525     327.8065     271.1726
   1427.37000     329.1157     272.6740   1427.37000     329.1157     272.6740
   1427.35474     330.5202     274.3556   1427.35474     330.5202     274.3556
   1427.33948     332.2563     275.9144   1427.33948     332.2563     275.9144
   1427.32422     334.5639     276.8914   1427.32422     334.5639     276.8914
   1427.30896     335.7865     278.6687   1427.30896     335.7865     278.6687
   1427.29370     338.0294     280.7023   1427.29370     338.0294     280.7023
   1427.27844     339.9751     281.7907   1427.27844     339.9751     281.7907
   1427.26318     342.0968     282.8623   1427.26318     342.0968     282.8623
   1427.24792     343.8429     285.0389   1427.24792     343.8429     285.0389
   1427.23267     345.6766     287.3371   1427.23267     345.6766     287.3371
   1427.21741     347.5370     288.4509   1427.21741     347.5370     288.4509
   1427.20215     348.8360     290.6423   1427.20215     348.8360     290.6423
   1427.18689     350.9758     292.2858   1427.18689     350.9758     292.2858
   1427.17163     353.6671     293.6243   1427.17163     353.6671     293.6243
   1427.15637     355.8676     295.6646   1427.15637     355.8676     295.6646
   1427.14111     358.1274     297.8031   1427.14111     358.1274     297.8031
   1427.12585     359.6028     299.3260   1427.12585     359.6028     299.3260
   1427.11060     362.1378     302.0188   1427.11060     362.1378     302.0188
   1427.09534     364.3447     303.1743   1427.09534     364.3447     303.1743
   1427.08008     365.6696     305.0931   1427.08008     365.6696     305.0931
   1427.06482     368.9023     307.0254   1427.06482     368.9023     307.0254
   1427.04956     370.4023     309.4809   1427.04956     370.4023     309.4809
   1427.03430     372.4535     311.1984   1427.03430     372.4535     311.1984
   1427.01904     375.6305     313.0929   1427.01904     375.6305     313.0929
   1427.00378     377.3098     314.6888   1427.00378     377.3098     314.6888
   1426.98853     379.4174     316.8109   1426.98853     379.4174     316.8109
   1426.97327     382.0460     318.6519   1426.97327     382.0460     318.6519
   1426.95801     385.1423     320.5990   1426.95801     385.1423     320.5990
   1426.94275     387.3218     322.7012   1426.94275     387.3218     322.7012
   1426.92749     388.7146     324.8123   1426.92749     388.7146     324.8123
   1426.91223     391.4380     326.7313   1426.91223     391.4380     326.7313
   1426.89697     394.3467     328.6253   1426.89697     394.3467     328.6253
   1426.88171     396.5359     331.3091   1426.88171     396.5359     331.3091
   1426.86646     398.3558     333.1865   1426.86646     398.3558     333.1865
   1426.85120     401.0578     334.4523   1426.85120     401.0578     334.4523
   1426.83594     403.7676     336.7802   1426.83594     403.7676     336.7802
   1426.82068     405.7866     338.8370   1426.82068     405.7866     338.8370
   1426.80542     408.5305     341.3110   1426.80542     408.5305     341.3110
   1426.79016     410.8723     343.7321   1426.79016     410.8723     343.7321
   1426.77490     412.9484     345.9005   1426.77490     412.9484     345.9005
   1426.75964     416.5155     347.4741   1426.75964     416.5155     347.4741
   1426.74438     418.0072     350.1501   1426.74438     418.0072     350.1501
   1426.72913     420.5661     351.5448   1426.72913     420.5661     351.5448
   1426.71387     422.5329     354.2185   1426.71387     422.5329     354.2185
   1426.69861     425.8449     355.7675   1426.69861     425.8449     355.7675
   1426.68335     427.9749     357.9242   1426.68335     427.9749     357.9242
   1426.66809     430.7352     360.2724   1426.66809     430.7352     360.2724
   1426.65283     433.0073     362.4026   1426.65283     433.0073     362.4026
   1426.63757     436.2789     364.1873   1426.63757     436.2789     364.1873
   1426.62231     439.1884     366.9531   1426.62231     439.1884     366.9531
   1426.60706     440.5426     368.3745   1426.60706     440.5426     368.3745
   1426.59180     443.3588     370.2677   1426.59180     443.3588     370.2677
   1426.57654     445.1833     372.8067   1426.57654     445.1833     372.8067
   1426.56128     447.7426     374.5042   1426.56128     447.7426     374.5042
   1426.54602     450.5807     376.6018   1426.54602     450.5807     376.6018
   1426.53076     452.8600     379.2641   1426.53076     452.8600     379.2641
   1426.51550     455.4969     380.9887   1426.51550     455.4969     380.9887
   1426.50024     457.0680     382.2866   1426.50024     457.0680     382.2866
   1426.48499     460.0672     384.2864   1426.48499     460.0672     384.2864
   1426.46973     463.0601     387.0109   1426.46973     463.0601     387.0109
   1426.45447     465.0763     389.2492   1426.45447     465.0763     389.2492
   1426.43921     467.2134     390.4158   1426.43921     467.2134     390.4158
   1426.42395     469.5896     393.5107   1426.42395     469.5896     393.5107
   1426.40869     471.8629     394.7154   1426.40869     471.8629     394.7154
   1426.39343     475.3124     396.3237   1426.39343     475.3124     396.3237
   1426.37817     477.2888     399.1146   1426.37817     477.2888     399.1146
   1426.36292     479.3708     400.1185   1426.36292     479.3708     400.1185
   1426.34766     482.2854     402.8858   1426.34766     482.2854     402.8858
   1426.33240     483.9367     405.2211   1426.33240     483.9367     405.2211
   1426.31714     485.9738     407.1815   1426.31714     485.9738     407.1815
   1426.30188     488.6977     408.9007   1426.30188     488.6977     408.9007
   1426.28662     491.1299     410.1143   1426.28662     491.1299     410.1143
   1426.27136     493.2475     412.3490   1426.27136     493.2475     412.3490
   1426.25610     495.4213     414.2075   1426.25610     495.4213     414.2075
   1426.24084     497.3794     416.7735   1426.24084     497.3794     416.7735
   1426.22559     500.3453     418.7689   1426.22559     500.3453     418.7689
   1426.21033     501.6388     419.4839   1426.21033     501.6388     419.4839
   1426.19507     504.2141     421.2799   1426.19507     504.2141     421.2799
   1426.17981     506.7998     423.9484   1426.17981     506.7998     423.9484
   1426.16455     508.6872     425.5669   1426.16455     508.6872     425.5669
   1426.14929     511.1860     427.6868   1426.14929     511.1860     427.6868
   1426.13403     512.6873     428.8442   1426.13403     512.6873     428.8442
   1426.11877     514.8746     431.2121   1426.11877     514.8746     431.2121
   1426.10352     516.3401     432.5230   1426.10352     516.3401     432.5230
   1426.08826     518.7441     434.7397   1426.08826     518.7441     434.7397
   1426.07300     521.0954     435.5234   1426.07300     521.0954     435.5234
   1426.05774     523.0058     437.9764   1426.05774     523.0058     437.9764
   1426.04248     525.0739     439.4612   1426.04248     525.0739     439.4612
   1426.02722     526.3968     441.4045   1426.02722     526.3968     441.4045
   1426.01196     529.1042     443.0216   1426.01196     529.1042     443.0216
   1425.99670     529.8148     444.4641   1425.99670     529.8148     444.4641
   1425.98145     531.6967     445.3840   1425.98145     531.6967     445.3840
   1425.96619     533.9803     448.1891   1425.96619     533.9803     448.1891
   1425.95093     535.9481     449.6826   1425.95093     535.9481     449.6826
   1425.93567     538.5099     450.9482   1425.93567     538.5099     450.9482
   1425.92041     539.7501     453.3392   1425.92041     539.7501     453.3392
   1425.90515     541.5273     454.0325   1425.90515     541.5273     454.0325
   1425.88989     543.2704     455.9382   1425.88989     543.2704     455.9382
   1425.87463     544.8389     457.0354   1425.87463     544.8389     457.0354
   1425.85938     546.2404     458.3477   1425.85938     546.2404     458.3477
   1425.84412     548.0999     460.4776   1425.84412     548.0999     460.4776
   1425.82886     550.7146     461.5024   1425.82886     550.7146     461.5024
   1425.81360     551.7550     463.3106   1425.81360     551.7550     463.3106
   1425.79834     553.1297     465.2742   1425.79834     553.1297     465.2742
   1425.78308     555.3327     466.3699   1425.78308     555.3327     466.3699
   1425.76782     557.0464     467.9866   1425.76782     557.0464     467.9866
   1425.75256     557.4769     468.9719   1425.75256     557.4769     468.9719
   1425.73730     560.0219     470.2199   1425.73730     560.0219     470.2199
   1425.72205     560.3499     471.3906   1425.72205     560.3499     471.3906
   1425.70679     561.7955     473.0101   1425.70679     561.7955     473.0101
   1425.69153     564.4089     474.6226   1425.69153     564.4089     474.6226
   1425.67627     565.7884     476.2222   1425.67627     565.7884     476.2222
   1425.66101     566.9462     476.8754   1425.66101     566.9462     476.8754
   1425.64575     568.1574     478.2925   1425.64575     568.1574     478.2925
   1425.63049     568.9742     479.2279   1425.63049     568.9742     479.2279
   1425.61523     570.3226     481.3385   1425.61523     570.3226     481.3385
   1425.59998     570.6954     482.2292   1425.59998     570.6954     482.2292
   1425.58472     574.3584     484.2434   1425.58472     574.3584     484.2434
   1425.56946     574.0739     485.2022   1425.56946     574.0739     485.2022
   1425.55420     575.4700     484.7523   1425.55420     575.4700     484.7523
   1425.53894     576.9921     486.7424   1425.53894     576.9921     486.7424
   1425.52368     577.4893     489.0264   1425.52368     577.4893     489.0264
   1425.50842     579.0357     489.4277   1425.50842     579.0357     489.4277
   1425.49316     580.1096     490.0956   1425.49316     580.1096     490.0956
   1425.47791     580.9936     492.2162   1425.47791     580.9936     492.2162
   1425.46265     583.7271     492.4453   1425.46265     583.7271     492.4453
   1425.44739     583.9147     494.3040   1425.44739     583.9147     494.3040
   1425.43213     584.7294     495.4778   1425.43213     584.7294     495.4778
   1425.41687     584.4515     496.4289   1425.41687     584.4515     496.4289
   1425.40161     585.9164     497.9001   1425.40161     585.9164     497.9001
   1425.38635     587.0731     499.1253   1425.38635     587.0731     499.1253
   1425.37109     587.5262     499.7736   1425.37109     587.5262     499.7736
   1425.35583     587.8755     500.1551   1425.35583     587.8755     500.1551
   1425.34058     589.4819     501.9969   1425.34058     589.4819     501.9969
   1425.32532     590.6246     503.3453   1425.32532     590.6246     503.3453
   1425.31006     591.9664     504.0869   1425.31006     591.9664     504.0869
   1425.29480     593.6131     505.0474   1425.29480     593.6131     505.0474
   1425.27954     593.0171     506.4203   1425.27954     593.0171     506.4203
   1425.26428     593.9918     506.6938   1425.26428     593.9918     506.6938
   1425.24902     595.1337     508.3737   1425.24902     595.1337     508.3737
   1425.23376     594.9426     509.1216   1425.23376     594.9426     509.1216
   1425.21851     595.5972     509.9023   1425.21851     595.5972     509.9023
   1425.20325     595.9755     510.2871   1425.20325     595.9755     510.2871
   1425.18799     597.2584     511.6556   1425.18799     597.2584     511.6556
   1425.17273     597.4759     512.7070   1425.17273     597.4759     512.7070
   1425.15747     597.9951     513.4637   1425.15747     597.9951     513.4637
   1425.14221     599.0711     513.8301   1425.14221     599.0711     513.8301
   1425.12695     599.6970     515.1614   1425.12695     599.6970     515.1614
   1425.11169     599.8751     516.3705   1425.11169     599.8751     516.3705
   1425.09644     600.7252     516.9415   1425.09644     600.7252     516.9415
   1425.08118     601.3815     518.6688   1425.08118     601.3815     518.6688
   1425.06592     601.9523     519.2734   1425.06592     601.9523     519.2734
   1425.05066     602.0219     519.8700   1425.05066     602.0219     519.8700
   1425.03540     602.9047     520.5563   1425.03540     602.9047     520.5563
   1425.02014     602.1828     520.6723   1425.02014     602.1828     520.6723
   1425.00488     603.6859     522.2627   1425.00488     603.6859     522.2627
   1424.98962     603.1033     523.9215   1424.98962     603.1033     523.9215
   1424.97437     603.6251     524.7259   1424.97437     603.6251     524.7259
   1424.95911     604.6001     525.1608   1424.95911     604.6001     525.1608
   1424.94385     604.3736     525.4495   1424.94385     604.3736     525.4495
   1424.92859     605.1087     526.1517   1424.92859     605.1087     526.1517
   1424.91333     605.2519     526.3770   1424.91333     605.2519     526.3770
   1424.89807     605.7008     528.3987   1424.89807     605.7008     528.3987
   1424.88281     605.2774     529.0872   1424.88281     605.2774     529.0872
   1424.86755     605.5225     529.5909   1424.86755     605.5225     529.5909
   1424.85229     605.9459     529.7711   1424.85229     605.9459     529.7711
   1424.83704     607.2363     530.4568   1424.83704     607.2363     530.4568
   1424.82178     607.3738     532.3117   1424.82178     607.3738     532.3117
   1424.80652     607.5786     532.1142   1424.80652     607.5786     532.1142
   1424.79126     607.2507     532.8012   1424.79126     607.2507     532.8012
   1424.77600     607.8515     533.3416   1424.77600     607.8515     533.3416
   1424.76074     607.6208     533.7802   1424.76074     607.6208     533.7802
   1424.74548     607.5615     535.5182   1424.74548     607.5615     535.5182
   1424.73022     607.6324     535.5241   1424.73022     607.6324     535.5241
   1424.71497     608.4734     535.7847   1424.71497     608.4734     535.7847
   1424.69971     607.7414     536.7096   1424.69971     607.7414     536.7096
   1424.68445     608.6787     536.4880   1424.68445     608.6787     536.4880
   1424.66919     608.1473     538.2803   1424.66919     608.1473     538.2803
   1424.65393     608.8555     538.5627   1424.65393     608.8555     538.5627
   1424.63867     608.0032     537.7251   1424.63867     608.0032     537.7251
   1424.62341     607.9778     540.1793   1424.62341     607.9778     540.1793
   1424.60815     607.6915     540.4857   1424.60815     607.6915     540.4857
   1424.59290     608.0208     541.1407   1424.59290     608.0208     541.1407
   1424.57764     608.5241     541.3281   1424.57764     608.5241     541.3281
   1424.56238     608.2576     542.1249   1424.56238     608.2576     542.1249
   1424.54712     609.0301     541.5403   1424.54712     609.0301     541.5403
   1424.53186     608.6573     543.3337   1424.53186     608.6573     543.3337
   1424.51660     609.1564     543.3452   1424.51660     609.1564     543.3452
   1424.50134     608.0737     543.6392   1424.50134     608.0737     543.6392
   1424.48608     608.8645     544.7735   1424.48608     608.8645     544.7735
   1424.47083     609.7014     546.1428   1424.47083     609.7014     546.1428
   1424.45557     608.2950     544.2619   1424.45557     608.2950     544.2619
   1424.44031     607.9977     546.5096   1424.44031     607.9977     546.5096
   1424.42505     608.6362     546.9216   1424.42505     608.6362     546.9216
   1424.40979     607.5347     547.0525   1424.40979     607.5347     547.0525
   1424.39453     608.0702     547.6095   1424.39453     608.0702     547.6095
   1424.37927     608.7813     547.8037   1424.37927     608.7813     547.8037
   1424.36401     607.7307     547.9890   1424.36401     607.7307     547.9890
   1424.34875     607.1931     549.0983   1424.34875     607.1931     549.0983
   1424.33350     608.7813     548.9869   1424.33350     608.7813     548.9869
   1424.31824     607.2882     549.6041   1424.31824     607.2882     549.6041
   1424.30298     607.9022     549.9286   1424.30298     607.9022     549.9286
   1424.28772     608.6025     549.9621   1424.28772     608.6025     549.9621
   1424.27246     607.2405     550.4793   1424.27246     607.2405     550.4793
   1424.25720     606.1831     551.0997   1424.25720     606.1831     551.0997
   1424.24194     606.7736     551.9190   1424.24194     606.7736     551.9190
   1424.22668     606.4691     551.3689   1424.22668     606.4691     551.3689
   1424.21143     607.1165     551.7798   1424.21143     607.1165     551.7798
   1424.19617     606.0012     552.5384   1424.19617     606.0012     552.5384
   1424.18091     606.7866     552.6104   1424.18091     606.7866     552.6104
   1424.16565     606.3163     552.9735   1424.16565     606.3163     552.9735
   1424.15039     606.5527     553.3784   1424.15039     606.5527     553.3784
   1424.13513     606.3354     553.8367   1424.13513     606.3354     553.8367
   1424.11987     605.7701     553.2711   1424.11987     605.7701     553.2711
   1424.10461     605.4882     554.1907   1424.10461     605.4882     554.1907
   1424.08936     606.1083     553.8133   1424.08936     606.1083     553.8133
   1424.07410     605.9485     555.2697   1424.07410     605.9485     555.2697
   1424.05884     605.9820     555.0637   1424.05884     605.9820     555.0637
   1424.04358     603.8925     555.3934   1424.04358     603.8925     555.3934
   1424.02832     605.4834     556.3479   1424.02832     605.4834     556.3479
   1424.01306     604.1094     555.7645   1424.01306     604.1094     555.7645
   1423.99780     604.3226     555.8886   1423.99780     604.3226     555.8886
   1423.98254     604.7441     556.1589   1423.98254     604.7441     556.1589
   1423.96729     604.6653     556.9538   1423.96729     604.6653     556.9538
   1423.95203     603.2778     557.4667   1423.95203     603.2778     557.4667
   1423.93677     604.0605     557.0613   1423.93677     604.0605     557.0613
   1423.92151     602.5206     557.4766   1423.92151     602.5206     557.4766
   1423.90625     603.3494     557.2761   1423.90625     603.3494     557.2761
   1423.89099     603.3048     557.9623   1423.89099     603.3048     557.9623
   1423.87573     602.9092     557.1602   1423.87573     602.9092     557.1602
   1423.86047     602.7493     558.8019   1423.86047     602.7493     558.8019
   1423.84521     602.9335     558.2014   1423.84521     602.9335     558.2014
   1423.82996     602.8986     558.3770   1423.82996     602.8986     558.3770
   1423.81470     601.6563     557.9938   1423.81470     601.6563     557.9938
   1423.79944     601.8376     557.9014   1423.79944     601.8376     557.9014
   1423.78418     602.4354     558.7816   1423.78418     602.4354     558.7816
   1423.76892     600.7791     559.0669   1423.76892     600.7791     559.0669
   1423.75366     600.5772     558.3461   1423.75366     600.5772     558.3461
   1423.73840     600.3560     558.0699   1423.73840     600.3560     558.0699
   1423.72314     601.0234     558.0433   1423.72314     601.0234     558.0433
   1423.70789     600.5895     558.9998   1423.70789     600.5895     558.9998
   1423.69263     599.8647     558.4368   1423.69263     599.8647     558.4368
   1423.67737     599.8038     558.5532   1423.67737     599.8038     558.5532
   1423.66211     600.2923     558.7504   1423.66211     600.2923     558.7504
   1423.64685     599.2698     557.9316   1423.64685     599.2698     557.9316
   1423.63159     599.6500     558.6440   1423.63159     599.6500     558.6440
   1423.61633     598.4801     558.2949   1423.61633     598.4801     558.2949
   1423.60107     598.5543     558.3528   1423.60107     598.5543     558.3528
   1423.58582     598.8404     558.6108   1423.58582     598.8404     558.6108
   1423.57056     598.3737     557.9219   1423.57056     598.3737     557.9219
   1423.55530     599.2537     557.7760   1423.55530     599.2537     557.7760
   1423.54004     598.5634     558.0791   1423.54004     598.5634     558.0791
   1423.52478     597.4896     557.9114   1423.52478     597.4896     557.9114
   1423.50952     597.5637     557.5356   1423.50952     597.5637     557.5356
   1423.49426     597.2850     558.1414   1423.49426     597.2850     558.1414
   1423.47900     597.2488     558.2031   1423.47900     597.2488     558.2031
   1423.46375     597.2012     557.6528   1423.46375     597.2012     557.6528
   1423.44849     596.4700     557.1100   1423.44849     596.4700     557.1100
   1423.43323     596.5250     556.6680   1423.43323     596.5250     556.6680
   1423.41797     596.3112     556.7375   1423.41797     596.3112     556.7375
   1423.40271     596.0040     557.9681   1423.40271     596.0040     557.9681
   1423.38745     596.4279     556.2623   1423.38745     596.4279     556.2623
   1423.37219     596.8148     556.8297   1423.37219     596.8148     556.8297
   1423.35693     595.0328     556.0112   1423.35693     595.0328     556.0112
   1423.34167     596.1501     555.9879   1423.34167     596.1501     555.9879
   1423.32642     595.6107     555.2863   1423.32642     595.6107     555.2863
   1423.31116     594.3757     555.7565   1423.31116     594.3757     555.7565
   1423.29590     594.2784     554.0950   1423.29590     594.2784     554.0950
   1423.28064     593.7562     554.8571   1423.28064     593.7562     554.8571
   1423.26538     593.5184     553.8362   1423.26538     593.5184     553.8362
   1423.25012     594.0306     554.0983   1423.25012     594.0306     554.0983
   1423.23486     593.2463     553.8134   1423.23486     593.2463     553.8134
   1423.21960     593.1792     553.1149   1423.21960     593.1792     553.1149
   1423.20435     593.3575     552.8641   1423.20435     593.3575     552.8641
   1423.18909     593.0732     552.2304   1423.18909     593.0732     552.2304
   1423.17383     592.6002     552.8671   1423.17383     592.6002     552.8671
   1423.15857     591.8231     552.1069   1423.15857     591.8231     552.1069
   1423.14331     592.1118     550.9095   1423.14331     592.1118     550.9095
   1423.12805     592.0334     550.3464   1423.12805     592.0334     550.3464
   1423.11279     591.9932     550.5162   1423.11279     591.9932     550.5162
   1423.09753     591.8875     549.6498   1423.09753     591.8875     549.6498
   1423.08228     592.1641     549.2639   1423.08228     592.1641     549.2639
   1423.06702     591.5434     549.2278   1423.06702     591.5434     549.2278
   1423.05176     590.0935     548.7795   1423.05176     590.0935     548.7795
   1423.03650     590.1851     548.6984   1423.03650     590.1851     548.6984
   1423.02124     589.7859     547.4711   1423.02124     589.7859     547.4711
   1423.00598     590.5058     547.1497   1423.00598     590.5058     547.1497
   1422.99072     589.9341     546.4592   1422.99072     589.9341     546.4592
   1422.97546     590.1390     545.9965   1422.97546     590.1390     545.9965
   1422.96021     590.1175     545.8892   1422.96021     590.1175     545.8892
   1422.94495     589.7227     544.2842   1422.94495     589.7227     544.2842
   1422.92969     589.5214     544.6072   1422.92969     589.5214     544.6072
   1422.91443     588.5014     542.4794   1422.91443     588.5014     542.4794
   1422.89917     588.2018     542.6639   1422.89917     588.2018     542.6639
   1422.88391     588.7184     542.8957   1422.88391     588.7184     542.8957
   1422.86865     587.0702     541.0275   1422.86865     587.0702     541.0275
   1422.85339     587.0863     540.7190   1422.85339     587.0863     540.7190
   1422.83813     587.1813     539.9130   1422.83813     587.1813     539.9130
   1422.82288     587.4531     539.0339   1422.82288     587.4531     539.0339
   1422.80762     586.6292     538.2335   1422.80762     586.6292     538.2335
   1422.79236     587.6314     537.4736   1422.79236     587.6314     537.4736
   1422.77710     586.8144     537.1553   1422.77710     586.8144     537.1553
   1422.76184     586.6827     536.0621   1422.76184     586.6827     536.0621
   1422.74658     586.2977     536.0063   1422.74658     586.2977     536.0063
   1422.73132     586.8450     535.2026   1422.73132     586.8450     535.2026
   1422.71606     586.2394     533.5414   1422.71606     586.2394     533.5414
   1422.70081     586.1645     533.6660   1422.70081     586.1645     533.6660
   1422.68555     586.0978     532.2379   1422.68555     586.0978     532.2379
   1422.67029     585.9026     531.4929   1422.67029     585.9026     531.4929
   1422.65503     585.5084     530.3835   1422.65503     585.5084     530.3835
   1422.63977     585.9978     529.1098   1422.63977     585.9978     529.1098
   1422.62451     584.5372     528.6733   1422.62451     584.5372     528.6733
   1422.60925     584.4348     527.5591   1422.60925     584.4348     527.5591
   1422.59399     584.5478     526.6227   1422.59399     584.5478     526.6227
   1422.57874     584.0441     526.3428   1422.57874     584.0441     526.3428
   1422.56348     583.3779     525.2288   1422.56348     583.3779     525.2288
   1422.54822     583.8510     525.0475   1422.54822     583.8510     525.0475
   1422.53296     583.4265     523.2346   1422.53296     583.4265     523.2346
   1422.51770     582.6095     522.5886   1422.51770     582.6095     522.5886
   1422.50244     582.3265     521.9026   1422.50244     582.3265     521.9026
   1422.48718     583.4622     522.3242   1422.48718     583.4622     522.3242
   1422.47192     582.6019     520.0215   1422.47192     582.6019     520.0215
   1422.45667     583.3891     519.3458   1422.45667     583.3891     519.3458
   1422.44141     583.1685     517.9373   1422.44141     583.1685     517.9373
   1422.42615     582.8499     517.7005   1422.42615     582.8499     517.7005
   1422.41089     582.3864     516.3542   1422.41089     582.3864     516.3542
   1422.39563     581.7450     514.7577   1422.39563     581.7450     514.7577
   1422.38037     581.4229     513.9545   1422.38037     581.4229     513.9545
   1422.36511     582.7011     513.7454   1422.36511     582.7011     513.7454
   1422.34985     581.2202     512.9050   1422.34985     581.2202     512.9050
   1422.33459     582.0823     511.4560   1422.33459     582.0823     511.4560
   1422.31934     581.5492     510.1628   1422.31934     581.5492     510.1628
   1422.30408     580.7992     509.5388   1422.30408     580.7992     509.5388
   1422.28882     580.0275     507.5667   1422.28882     580.0275     507.5667
   1422.27356     580.4875     507.7184   1422.27356     580.4875     507.7184
   1422.25830     579.5564     506.7054   1422.25830     579.5564     506.7054
   1422.24304     579.5648     505.5472   1422.24304     579.5648     505.5472
   1422.22778     579.2972     504.3503   1422.22778     579.2972     504.3503
   1422.21252     579.9252     503.5023   1422.21252     579.9252     503.5023
   1422.19727     580.4944     502.4142   1422.19727     580.4944     502.4142
   1422.18201     579.5223     500.5800   1422.18201     579.5223     500.5800
   1422.16675     579.2619     499.8880   1422.16675     579.2619     499.8880
   1422.15149     578.8911     499.4920   1422.15149     578.8911     499.4920
   1422.13623     578.2919     498.2297   1422.13623     578.2919     498.2297
   1422.12097     577.8605     497.2386   1422.12097     577.8605     497.2386
   1422.10571     578.5135     495.0845   1422.10571     578.5135     495.0845
   1422.09045     579.1752     494.4612   1422.09045     579.1752     494.4612
   1422.07520     578.0795     492.9830   1422.07520     578.0795     492.9830
   1422.05994     578.2075     493.0789   1422.05994     578.2075     493.0789
   1422.04468     577.3365     491.1310   1422.04468     577.3365     491.1310
   1422.02942     576.8818     490.1462   1422.02942     576.8818     490.1462
   1422.01416     576.9738     489.6148   1422.01416     576.9738     489.6148
   1421.99890     577.1777     488.4908   1421.99890     577.1777     488.4908
   1421.98364     577.0500     487.1945   1421.98364     577.0500     487.1945
   1421.96838     577.5532     485.9055   1421.96838     577.5532     485.9055
   1421.95312     576.3462     485.3562   1421.95312     576.3462     485.3562
   1421.93787     576.0065     483.5881   1421.93787     576.0065     483.5881
   1421.92261     576.4741     482.6827   1421.92261     576.4741     482.6827
   1421.90735     576.1755     481.3790   1421.90735     576.1755     481.3790
   1421.89209     576.6025     480.6682   1421.89209     576.6025     480.6682
   1421.87683     576.5491     479.0435   1421.87683     576.5491     479.0435
   1421.86157     575.7357     478.2181   1421.86157     575.7357     478.2181
   1421.84631     576.1012     477.6311   1421.84631     576.1012     477.6311
   1421.83105     574.9765     476.0746   1421.83105     574.9765     476.0746
   1421.81580     575.7454     475.3075   1421.81580     575.7454     475.3075
   1421.80054     574.7737     473.5832   1421.80054     574.7737     473.5832
   1421.78528     575.3343     473.0144   1421.78528     575.3343     473.0144
   1421.77002     574.3510     471.5683   1421.77002     574.3510     471.5683
   1421.75476     574.4501     471.2872   1421.75476     574.4501     471.2872
   1421.73950     574.2396     468.9746   1421.73950     574.2396     468.9746
   1421.72424     574.4964     468.4929   1421.72424     574.4964     468.4929
   1421.70898     573.7504     466.9634   1421.70898     573.7504     466.9634
   1421.69373     573.6096     465.2184   1421.69373     573.6096     465.2184
   1421.67847     574.6481     465.6365   1421.67847     574.6481     465.6365
   1421.66321     573.3558     463.1402   1421.66321     573.3558     463.1402
   1421.64795     573.0412     462.6241   1421.64795     573.0412     462.6241
   1421.63269     573.5980     460.7881   1421.63269     573.5980     460.7881
   1421.61743     573.0278     460.1887   1421.61743     573.0278     460.1887
   1421.60217     572.8102     459.7924   1421.60217     572.8102     459.7924
   1421.58691     573.6905     457.6220   1421.58691     573.6905     457.6220
   1421.57166     572.9963     456.3825   1421.57166     572.9963     456.3825
   1421.55640     573.2233     456.0970   1421.55640     573.2233     456.0970
   1421.54114     573.1773     454.3257   1421.54114     573.1773     454.3257
   1421.52588     573.0013     453.6657   1421.52588     573.0013     453.6657
   1421.51062     572.4178     452.6911   1421.51062     572.4178     452.6911
   1421.49536     573.0633     451.2908   1421.49536     573.0633     451.2908
   1421.48010     571.9456     449.4796   1421.48010     571.9456     449.4796
   1421.46484     572.6298     448.7059   1421.46484     572.6298     448.7059
   1421.44958     571.9739     447.3829   1421.44958     571.9739     447.3829
   1421.43433     571.7555     446.8584   1421.43433     571.7555     446.8584
   1421.41907     571.4208     445.7858   1421.41907     571.4208     445.7858
   1421.40381     572.4705     445.1363   1421.40381     572.4705     445.1363
   1421.38855     571.9652     443.1405   1421.38855     571.9652     443.1405
   1421.37329     571.6563     442.0688   1421.37329     571.6563     442.0688
   1421.35803     571.9047     441.5064   1421.35803     571.9047     441.5064
   1421.34277     571.6595     440.8312   1421.34277     571.6595     440.8312
   1421.32751     571.8223     440.3957   1421.32751     571.8223     440.3957
   1421.31226     572.2802     438.7801   1421.31226     572.2802     438.7801
   1421.29700     571.6434     437.1234   1421.29700     571.6434     437.1234
   1421.28174     572.5428     436.5421   1421.28174     572.5428     436.5421
   1421.26648     572.8199     435.7112   1421.26648     572.8199     435.7112
   1421.25122     572.3076     435.0978   1421.25122     572.3076     435.0978
   1421.23596     573.6927     434.6763   1421.23596     573.6927     434.6763
   1421.22070     575.1084     435.1220   1421.22070     575.1084     435.1220
   1421.20544     576.5778     434.4150   1421.20544     576.5778     434.4150
   1421.19019     577.5541     435.5118   1421.19019     577.5541     435.5118
   1421.17493     582.8329     437.3040   1421.17493     582.8329     437.3040
   1421.15967     586.2467     440.0502   1421.15967     586.2467     440.0502
   1421.14441     593.8839     443.4481   1421.14441     593.8839     443.4481
   1421.12915     603.2300     448.8198   1421.12915     603.2300     448.8198
   1421.11389     613.3643     456.0876   1421.11389     613.3643     456.0876
   1421.09863     628.6573     464.3045   1421.09863     628.6573     464.3045
   1421.08337     642.1328     475.1473   1421.08337     642.1328     475.1473
   1421.06812     657.5172     483.5799   1421.06812     657.5172     483.5799
   1421.05286     671.0419     493.6676   1421.05286     671.0419     493.6676
   1421.03760     686.8571     503.3036   1421.03760     686.8571     503.3036
   1421.02234     699.9478     511.1451   1421.02234     699.9478     511.1451
   1421.00708     715.2556     521.8464   1421.00708     715.2556     521.8464
   1420.99182     744.4174     541.8707   1420.99182     744.4174     541.8707
   1420.97656     797.1079     578.4637   1420.97656     797.1079     578.4637
   1420.96130     902.3933     651.4962   1420.96130     902.3933     651.4962
   1420.94604    1054.5143     758.5773   1420.94604    1054.5143     758.5773
   1420.93079    1199.5846     857.2234   1420.93079    1199.5846     857.2234
   1420.91553    1330.4358     945.4344   1420.91553    1330.4358     945.4344
   1420.90027    1386.6383     983.4086   1420.90027    1386.6383     983.4086
   1420.88501    1281.4856     904.2348   1420.88501    1281.4856     904.2348
   1420.86975    1137.2181     804.0499   1420.86975    1137.2181     804.0499
   1420.85449    1080.3503     765.1751   1420.85449    1080.3503     765.1751
   1420.83923    1144.9757     804.5318   1420.83923    1144.9757     804.5318
   1420.82397    1338.7764     939.2283   1420.82397    1338.7764     939.2283
   1420.80872    1450.4788    1011.5298   1420.80872    1450.4788    1011.5298
   1420.79346    1405.2589     980.1125   1420.79346    1405.2589     980.1125
   1420.77820    1391.2657     966.1531   1420.77820    1391.2657     966.1531
   1420.76294    1399.4648     968.7175   1420.76294    1399.4648     968.7175
   1420.74768    1347.8593     935.3594   1420.74768    1347.8593     935.3594
   1420.73242    1205.1112     833.7696   1420.73242    1205.1112     833.7696
   1420.71716    1092.9629     756.4179   1420.71716    1092.9629     756.4179
   1420.70190    1074.6086     743.7833   1420.70190    1074.6086     743.7833
   1420.68665    1205.0988     831.8041   1420.68665    1205.0988     831.8041
   1420.67139    1409.0801     964.5690   1420.67139    1409.0801     964.5690
   1420.65613    1459.3214     998.4352   1420.65613    1459.3214     998.4352
   1420.64087    1315.9391     899.2985   1420.64087    1315.9391     899.2985
   1420.62561    1112.4380     759.6456   1420.62561    1112.4380     759.6456
   1420.61035    1018.4385     696.7636   1420.61035    1018.4385     696.7636
   1420.59509    1057.7919     722.0202   1420.59509    1057.7919     722.0202
   1420.57983    1128.3218     765.0104   1420.57983    1128.3218     765.0104
   1420.56458    1122.5868     762.1570   1420.56458    1122.5868     762.1570
   1420.54932    1182.6124     799.8262   1420.54932    1182.6124     799.8262
   1420.53406    1278.6923     859.6743   1420.53406    1278.6923     859.6743
   1420.51880    1293.6522     868.5812   1420.51880    1293.6522     868.5812
   1420.50354    1147.7865     768.8600   1420.50354    1147.7865     768.8600
   1420.48828     953.8533     640.4667   1420.48828     953.8533     640.4667
   1420.47302     850.4887     571.7646   1420.47302     850.4887     571.7646
   1420.45776     766.5288     515.4077   1420.45776     766.5288     515.4077
   1420.44250     668.1987     450.7314   1420.44250     668.1987     450.7314
   1420.42725     622.7404     419.3843   1420.42725     622.7404     419.3843
   1420.41199     603.1829     406.3619   1420.41199     603.1829     406.3619
   1420.39673     593.2194     398.5580   1420.39673     593.2194     398.5580
   1420.38147     586.8428     393.8102   1420.38147     586.8428     393.8102
   1420.36621     582.8712     389.9178   1420.36621     582.8712     389.9178
   1420.35095     579.6217     388.6197   1420.35095     579.6217     388.6197
   1420.33569     577.2064     385.8391   1420.33569     577.2064     385.8391
   1420.32043     576.1996     382.8676   1420.32043     576.1996     382.8676
   1420.30518     574.5507     382.7001   1420.30518     574.5507     382.7001
   1420.28992     576.5045     381.5683   1420.28992     576.5045     381.5683
   1420.27466     575.3157     381.1957   1420.27466     575.3157     381.1957
   1420.25940     575.4116     380.1710   1420.25940     575.4116     380.1710
   1420.24414     575.0596     379.5139   1420.24414     575.0596     379.5139
   1420.22888     573.7612     379.0961   1420.22888     573.7612     379.0961
   1420.21362     572.6865     377.1640   1420.21362     572.6865     377.1640
   1420.19836     571.1029     375.7486   1420.19836     571.1029     375.7486
   1420.18311     569.8174     373.9933   1420.18311     569.8174     373.9933
   1420.16785     568.9339     373.7404   1420.16785     568.9339     373.7404
   1420.15259     568.9413     372.2344   1420.15259     568.9413     372.2344
   1420.13733     567.7869     371.5301   1420.13733     567.7869     371.5301
   1420.12207     568.0724     370.6111   1420.12207     568.0724     370.6111
   1420.10681     567.8476     370.0251   1420.10681     567.8476     370.0251
   1420.09155     567.5504     368.9429   1420.09155     567.5504     368.9429
   1420.07629     566.9104     368.1227   1420.07629     566.9104     368.1227
   1420.06104     567.2474     367.2807   1420.06104     567.2474     367.2807
   1420.04578     566.4388     367.0761   1420.04578     566.4388     367.0761
   1420.03052     567.2352     366.1186   1420.03052     567.2352     366.1186
   1420.01526     566.8887     366.3586   1420.01526     566.8887     366.3586
   1420.00000     567.5709     366.9721   1420.00000     567.5709     366.9721
   1419.98474     568.2530     367.5858   1419.98474     568.2530     367.5858
   1419.96948     568.1153     365.0471   1419.96948     568.1153     365.0471
   1419.95422     566.8326     363.4704   1419.95422     566.8326     363.4704
   1419.93896     565.5219     362.9230   1419.93896     565.5219     362.9230
   1419.92371     566.3130     361.6450   1419.92371     566.3130     361.6450
   1419.90845     566.6477     361.6213   1419.90845     566.6477     361.6213
   1419.89319     566.3839     361.6916   1419.89319     566.3839     361.6916
   1419.87793     566.8080     361.0297   1419.87793     566.8080     361.0297
   1419.86267     567.4672     360.7499   1419.86267     567.4672     360.7499
   1419.84741     566.5908     360.3794   1419.84741     566.5908     360.3794
   1419.83215     567.6169     360.2758   1419.83215     567.6169     360.2758
   1419.81689     567.6442     360.1152   1419.81689     567.6442     360.1152
   1419.80164     568.6288     359.1578   1419.80164     568.6288     359.1578
   1419.78638     568.3226     358.8423   1419.78638     568.3226     358.8423
   1419.77112     567.8978     358.3734   1419.77112     567.8978     358.3734
   1419.75586     568.7852     358.3150   1419.75586     568.7852     358.3150
   1419.74060     568.6633     358.4971   1419.74060     568.6633     358.4971
   1419.72534     569.6804     358.0898   1419.72534     569.6804     358.0898
   1419.71008     569.4069     357.5565   1419.71008     569.4069     357.5565
   1419.69482     569.3356     356.6478   1419.69482     569.3356     356.6478
   1419.67957     570.0089     357.0264   1419.67957     570.0089     357.0264
   1419.66431     570.0694     356.5438   1419.66431     570.0694     356.5438
   1419.64905     570.6672     356.4434   1419.64905     570.6672     356.4434
   1419.63379     570.4804     356.4066   1419.63379     570.4804     356.4066
   1419.61853     570.9434     355.9124   1419.61853     570.9434     355.9124
   1419.60327     570.1332     355.4542   1419.60327     570.1332     355.4542
   1419.58801     572.0780     355.4909   1419.58801     572.0780     355.4909
   1419.57275     571.2566     355.2828   1419.57275     571.2566     355.2828
   1419.55750     572.1423     355.5093   1419.55750     572.1423     355.5093
   1419.54224     573.0837     355.3488   1419.54224     573.0837     355.3488
   1419.52698     572.2659     355.0348   1419.52698     572.2659     355.0348
   1419.51172     572.8989     354.7534   1419.51172     572.8989     354.7534
   1419.49646     573.1961     354.8298   1419.49646     573.1961     354.8298
   1419.48120     574.0205     353.8730   1419.48120     574.0205     353.8730
   1419.46594     573.6472     354.1902   1419.46594     573.6472     354.1902
   1419.45068     573.8931     354.1866   1419.45068     573.8931     354.1866
   1419.43542     573.9249     354.3495   1419.43542     573.9249     354.3495
   1419.42017     574.6432     353.7539   1419.42017     574.6432     353.7539
   1419.40491     574.7979     354.1285   1419.40491     574.7979     354.1285
   1419.38965     575.0915     354.0343   1419.38965     575.0915     354.0343
   1419.37439     575.0807     353.4948   1419.37439     575.0807     353.4948
   1419.35913     575.7552     353.5679   1419.35913     575.7552     353.5679
   1419.34387     576.7881     353.8100   1419.34387     576.7881     353.8100
   1419.32861     577.1005     353.4189   1419.32861     577.1005     353.4189
   1419.31335     576.0613     352.7946   1419.31335     576.0613     352.7946
   1419.29810     577.3503     353.3315   1419.29810     577.3503     353.3315
   1419.28284     578.0318     353.3184   1419.28284     578.0318     353.3184
   1419.26758     578.6016     353.2205   1419.26758     578.6016     353.2205
   1419.25232     577.7706     353.7994   1419.25232     577.7706     353.7994
   1419.23706     578.5852     353.1692   1419.23706     578.5852     353.1692
   1419.22180     579.3732     353.7387   1419.22180     579.3732     353.7387
   1419.20654     579.8802     353.3981   1419.20654     579.8802     353.3981
   1419.19128     579.8912     353.2683   1419.19128     579.8912     353.2683
   1419.17603     580.9004     353.2076   1419.17603     580.9004     353.2076
   1419.16077     580.0199     353.4912   1419.16077     580.0199     353.4912
   1419.14551     581.1560     353.2554   1419.14551     581.1560     353.2554
   1419.13025     581.3832     353.3871   1419.13025     581.3832     353.3871
   1419.11499     581.8892     353.0445   1419.11499     581.8892     353.0445
   1419.09973     581.3278     353.8633   1419.09973     581.3278     353.8633
   1419.08447     582.0126     353.9167   1419.08447     582.0126     353.9167
   1419.06921     583.4160     354.3546   1419.06921     583.4160     354.3546
   1419.05396     583.5823     354.1764   1419.05396     583.5823     354.1764
   1419.03870     583.5432     354.4026   1419.03870     583.5432     354.4026
   1419.02344     584.4631     354.5200   1419.02344     584.4631     354.5200
   1419.00818     583.6640     354.2532   1419.00818     583.6640     354.2532
   1418.99292     586.1688     354.5197   1418.99292     586.1688     354.5197
   1418.97766     584.9901     354.8552   1418.97766     584.9901     354.8552
   1418.96240     586.1491     354.9175   1418.96240     586.1491     354.9175
   1418.94714     585.3405     354.4793   1418.94714     585.3405     354.4793
   1418.93188     587.4476     354.6309   1418.93188     587.4476     354.6309
   1418.91663     587.8163     354.7946   1418.91663     587.8163     354.7946
   1418.90137     587.6572     355.8005   1418.90137     587.6572     355.8005
   1418.88611     588.1120     354.8269   1418.88611     588.1120     354.8269
   1418.87085     587.6970     355.8279   1418.87085     587.6970     355.8279
   1418.85559     589.3051     356.8553   1418.85559     589.3051     356.8553
   1418.84033     589.9520     356.1837   1418.84033     589.9520     356.1837
   1418.82507     590.1789     356.5701   1418.82507     590.1789     356.5701
   1418.80981     589.7592     356.6537   1418.80981     589.7592     356.6537
   1418.79456     590.9142     357.3468   1418.79456     590.9142     357.3468
   1418.77930     590.7653     357.3201   1418.77930     590.7653     357.3201
   1418.76404     591.5453     357.3387   1418.76404     591.5453     357.3387
   1418.74878     593.1153     357.8813   1418.74878     593.1153     357.8813
   1418.73352     592.3027     358.1564   1418.73352     592.3027     358.1564
   1418.71826     593.7197     358.1086   1418.71826     593.7197     358.1086
   1418.70300     593.9802     358.7319   1418.70300     593.9802     358.7319
   1418.68774     594.1445     359.0788   1418.68774     594.1445     359.0788
   1418.67249     595.3619     359.4888   1418.67249     595.3619     359.4888
   1418.65723     594.9837     359.5075   1418.65723     594.9837     359.5075
   1418.64197     596.2048     359.5737   1418.64197     596.2048     359.5737
   1418.62671     596.3091     359.8623   1418.62671     596.3091     359.8623
   1418.61145     596.6564     360.6312   1418.61145     596.6564     360.6312
   1418.59619     597.4097     360.1897   1418.59619     597.4097     360.1897
   1418.58093     598.5300     361.0998   1418.58093     598.5300     361.0998
   1418.56567     598.5890     361.1180   1418.56567     598.5890     361.1180
   1418.55042     598.9261     362.1293   1418.55042     598.9261     362.1293
   1418.53516     600.8429     361.6412   1418.53516     600.8429     361.6412
   1418.51990     601.2943     362.0938   1418.51990     601.2943     362.0938
   1418.50464     600.7888     362.8793   1418.50464     600.7888     362.8793
   1418.48938     601.1781     362.9787   1418.48938     601.1781     362.9787
   1418.47412     602.1302     363.3558   1418.47412     602.1302     363.3558
   1418.45886     602.1344     363.6643   1418.45886     602.1344     363.6643
   1418.44360     603.1503     364.0141   1418.44360     603.1503     364.0141
   1418.42834     603.3356     364.1344   1418.42834     603.3356     364.1344
   1418.41309     605.6867     364.7162   1418.41309     605.6867     364.7162
   1418.39783     604.4092     365.3622   1418.39783     604.4092     365.3622
   1418.38257     605.9113     365.6086   1418.38257     605.9113     365.6086
   1418.36731     606.2164     366.3893   1418.36731     606.2164     366.3893
   1418.35205     607.1153     366.2323   1418.35205     607.1153     366.2323
   1418.33679     607.6393     367.9171   1418.33679     607.6393     367.9171
   1418.32153     609.0545     367.9483   1418.32153     609.0545     367.9483
   1418.30627     608.7737     368.2025   1418.30627     608.7737     368.2025
   1418.29102     609.4343     368.6282   1418.29102     609.4343     368.6282
   1418.27576     609.5729     369.5545   1418.27576     609.5729     369.5545
   1418.26050     610.7067     369.1399   1418.26050     610.7067     369.1399
   1418.24524     611.7696     370.0193   1418.24524     611.7696     370.0193
   1418.22998     612.1103     370.2781   1418.22998     612.1103     370.2781
   1418.21472     613.1772     370.8431   1418.21472     613.1772     370.8431
   1418.19946     613.8242     370.8339   1418.19946     613.8242     370.8339
   1418.18420     614.0708     371.9163   1418.18420     614.0708     371.9163
   1418.16895     616.1028     371.7969   1418.16895     616.1028     371.7969
   1418.15369     615.1696     373.1614   1418.15369     615.1696     373.1614
   1418.13843     614.8225     373.5238   1418.13843     614.8225     373.5238
   1418.12317     617.2755     374.0408   1418.12317     617.2755     374.0408
   1418.10791     616.7749     374.9408   1418.10791     616.7749     374.9408
   1418.09265     618.9502     375.0970   1418.09265     618.9502     375.0970
   1418.07739     619.5074     375.3148   1418.07739     619.5074     375.3148
   1418.06213     619.2644     376.2841   1418.06213     619.2644     376.2841
   1418.04688     621.1207     376.2729   1418.04688     621.1207     376.2729
   1418.03162     620.7092     376.6585   1418.03162     620.7092     376.6585
   1418.01636     622.0627     377.0826   1418.01636     622.0627     377.0826
   1418.00110     622.3503     378.0583   1418.00110     622.3503     378.0583
   1417.98584     623.6738     378.6780   1417.98584     623.6738     378.6780
   1417.97058     624.6030     378.7620   1417.97058     624.6030     378.7620
   1417.95532     624.7256     380.0449   1417.95532     624.7256     380.0449
   1417.94006     625.4059     380.8257   1417.94006     625.4059     380.8257
   1417.92480     626.5593     380.2914   1417.92480     626.5593     380.2914
   1417.90955     627.5772     381.6826   1417.90955     627.5772     381.6826
   1417.89429     627.1967     381.9674   1417.89429     627.1967     381.9674
   1417.87903     628.5778     382.7144   1417.87903     628.5778     382.7144
   1417.86377     629.4979     382.9113   1417.86377     629.4979     382.9113
   1417.84851     629.7930     384.4417   1417.84851     629.7930     384.4417
   1417.83325     630.5691     384.5225   1417.83325     630.5691     384.5225
   1417.81799     631.9383     384.7091   1417.81799     631.9383     384.7091
   1417.80273     632.6763     385.2842   1417.80273     632.6763     385.2842
   1417.78748     632.4346     385.7877   1417.78748     632.4346     385.7877
   1417.77222     634.4672     386.2470   1417.77222     634.4672     386.2470
   1417.75696     635.2585     387.2897   1417.75696     635.2585     387.2897
   1417.74170     635.7028     388.2037   1417.74170     635.7028     388.2037
   1417.72644     636.5245     388.9143   1417.72644     636.5245     388.9143
   1417.71118     637.0560     389.1395   1417.71118     637.0560     389.1395
   1417.69592     636.7028     389.0573   1417.69592     636.7028     389.0573
   1417.68066     638.2376     390.0786   1417.68066     638.2376     390.0786
   1417.66541     639.5817     390.2757   1417.66541     639.5817     390.2757
   1417.65015     640.1876     391.0639   1417.65015     640.1876     391.0639
   1417.63489     640.6293     391.3684   1417.63489     640.6293     391.3684
   1417.61963     641.5540     392.4263   1417.61963     641.5540     392.4263
   1417.60437     643.0240     393.1848   1417.60437     643.0240     393.1848
   1417.58911     642.7556     393.8532   1417.58911     642.7556     393.8532
   1417.57385     644.1826     394.2336   1417.57385     644.1826     394.2336
   1417.55859     645.1912     395.4968   1417.55859     645.1912     395.4968
   1417.54333     645.1146     395.3311   1417.54333     645.1146     395.3311
   1417.52808     645.7522     395.5036   1417.52808     645.7522     395.5036
   1417.51282     646.6931     397.2311   1417.51282     646.6931     397.2311
   1417.49756     647.3809     397.1955   1417.49756     647.3809     397.1955
   1417.48230     649.0291     397.6602   1417.48230     649.0291     397.6602
   1417.46704     650.1097     398.4837   1417.46704     650.1097     398.4837
   1417.45178     650.3922     399.0421   1417.45178     650.3922     399.0421
   1417.43652     651.1200     400.2082   1417.43652     651.1200     400.2082
   1417.42126     651.9661     400.2494   1417.42126     651.9661     400.2494
   1417.40601     653.3428     400.8982   1417.40601     653.3428     400.8982
   1417.39075     654.0364     401.2059   1417.39075     654.0364     401.2059
   1417.37549     653.8483     402.3633   1417.37549     653.8483     402.3633
   1417.36023     654.9100     402.9877   1417.36023     654.9100     402.9877
   1417.34497     655.6417     403.1243   1417.34497     655.6417     403.1243
   1417.32971     656.0643     403.3866   1417.32971     656.0643     403.3866
   1417.31445     656.9685     404.2985   1417.31445     656.9685     404.2985
   1417.29919     657.3565     405.0630   1417.29919     657.3565     405.0630
   1417.28394     657.9408     406.1007   1417.28394     657.9408     406.1007
   1417.26868     659.6541     405.8276   1417.26868     659.6541     405.8276
   1417.25342     659.3956     406.3397   1417.25342     659.3956     406.3397
   1417.23816     660.5977     407.5289   1417.23816     660.5977     407.5289
   1417.22290     662.4006     408.2231   1417.22290     662.4006     408.2231
   1417.20764     662.2048     409.5206   1417.20764     662.2048     409.5206
   1417.19238     663.1327     408.9106   1417.19238     663.1327     408.9106
   1417.17712     663.4794     409.7859   1417.17712     663.4794     409.7859
   1417.16187     663.3954     409.6478   1417.16187     663.3954     409.6478
   1417.14661     665.0698     410.4059   1417.14661     665.0698     410.4059
   1417.13135     665.6581     411.3054   1417.13135     665.6581     411.3054
   1417.11609     665.6998     411.1852   1417.11609     665.6998     411.1852
   1417.10083     666.3892     411.9803   1417.10083     666.3892     411.9803
   1417.08557     667.0071     412.3145   1417.08557     667.0071     412.3145
   1417.07031     668.0916     412.1679   1417.07031     668.0916     412.1679
   1417.05505     668.2756     413.3473   1417.05505     668.2756     413.3473
   1417.03979     669.0182     413.4735   1417.03979     669.0182     413.4735
   1417.02454     670.9478     414.4949   1417.02454     670.9478     414.4949
   1417.00928     669.9538     414.8834   1417.00928     669.9538     414.8834
   1416.99402     671.6320     415.9118   1416.99402     671.6320     415.9118
   1416.97876     671.9297     416.0259   1416.97876     671.9297     416.0259
   1416.96350     672.8733     416.3812   1416.96350     672.8733     416.3812
   1416.94824     672.2354     417.2764   1416.94824     672.2354     417.2764
   1416.93298     673.4554     417.0272   1416.93298     673.4554     417.0272
   1416.91772     674.1465     417.9399   1416.91772     674.1465     417.9399
   1416.90247     673.8106     417.8955   1416.90247     673.8106     417.8955
   1416.88721     674.7395     418.5164   1416.88721     674.7395     418.5164
   1416.87195     675.2021     418.9832   1416.87195     675.2021     418.9832
   1416.85669     675.8091     419.1927   1416.85669     675.8091     419.1927
   1416.84143     677.2297     420.6264   1416.84143     677.2297     420.6264
   1416.82617     676.3922     420.3306   1416.82617     676.3922     420.3306
   1416.81091     676.3915     420.8460   1416.81091     676.3915     420.8460
   1416.79565     677.6948     422.0465   1416.79565     677.6948     422.0465
   1416.78040     677.6979     421.1121   1416.78040     677.6979     421.1121
   1416.76514     678.0233     421.9579   1416.76514     678.0233     421.9579
   1416.74988     679.3322     421.9359   1416.74988     679.3322     421.9359
   1416.73462     679.3106     422.2881   1416.73462     679.3106     422.2881
   1416.71936     679.2903     422.6911   1416.71936     679.2903     422.6911
   1416.70410     680.1166     422.9276   1416.70410     680.1166     422.9276
   1416.68884     680.6705     423.6325   1416.68884     680.6705     423.6325
   1416.67358     679.9124     423.2047   1416.67358     679.9124     423.2047
   1416.65833     681.5571     423.2995   1416.65833     681.5571     423.2995
   1416.64307     680.1741     422.9643   1416.64307     680.1741     422.9643
   1416.62781     681.7858     424.0345   1416.62781     681.7858     424.0345
   1416.61255     681.3405     424.2809   1416.61255     681.3405     424.2809
   1416.59729     682.1069     425.1101   1416.59729     682.1069     425.1101
   1416.58203     683.1548     423.9908   1416.58203     683.1548     423.9908
   1416.56677     682.4952     424.7134   1416.56677     682.4952     424.7134
   1416.55151     682.7921     425.0759   1416.55151     682.7921     425.0759
   1416.53625     684.1072     425.5892   1416.53625     684.1072     425.5892
   1416.52100     683.2515     424.9922   1416.52100     683.2515     424.9922
   1416.50574     682.3906     425.9058   1416.50574     682.3906     425.9058
   1416.49048     682.8915     425.9677   1416.49048     682.8915     425.9677
   1416.47522     683.6724     425.7866   1416.47522     683.6724     425.7866
   1416.45996     683.0270     426.2421   1416.45996     683.0270     426.2421
   1416.44470     683.5714     426.4254   1416.44470     683.5714     426.4254
   1416.42944     682.2203     426.3100   1416.42944     682.2203     426.3100
   1416.41418     682.9769     426.1484   1416.41418     682.9769     426.1484
   1416.39893     682.7722     426.9977   1416.39893     682.7722     426.9977
   1416.38367     683.4729     427.1072   1416.38367     683.4729     427.1072
   1416.36841     683.6454     426.7051   1416.36841     683.6454     426.7051
   1416.35315     682.2752     426.5109   1416.35315     682.2752     426.5109
   1416.33789     683.6230     426.3547   1416.33789     683.6230     426.3547
   1416.32263     682.5647     426.9733   1416.32263     682.5647     426.9733
   1416.30737     682.8028     426.7707   1416.30737     682.8028     426.7707
   1416.29211     683.8121     426.1769   1416.29211     683.8121     426.1769
   1416.27686     683.0997     426.2058   1416.27686     683.0997     426.2058
   1416.26160     682.9468     426.9880   1416.26160     682.9468     426.9880
   1416.24634     683.0638     426.6141   1416.24634     683.0638     426.6141
   1416.23108     682.4744     426.3132   1416.23108     682.4744     426.3132
   1416.21582     683.2915     426.1005   1416.21582     683.2915     426.1005
   1416.20056     682.7135     426.5505   1416.20056     682.7135     426.5505
   1416.18530     682.2205     426.2714   1416.18530     682.2205     426.2714
   1416.17004     681.5695     426.6177   1416.17004     681.5695     426.6177
   1416.15479     681.2408     425.6246   1416.15479     681.2408     425.6246
   1416.13953     681.1600     425.5756   1416.13953     681.1600     425.5756
   1416.12427     681.2321     426.1376   1416.12427     681.2321     426.1376
   1416.10901     681.7763     426.5453   1416.10901     681.7763     426.5453
   1416.09375     679.6254     425.7556   1416.09375     679.6254     425.7556
   1416.07849     680.8231     425.2025   1416.07849     680.8231     425.2025
   1416.06323     680.5159     425.7363   1416.06323     680.5159     425.7363
   1416.04797     678.9500     425.0162   1416.04797     678.9500     425.0162
   1416.03271     678.4574     424.8981   1416.03271     678.4574     424.8981
   1416.01746     679.0845     424.9688   1416.01746     679.0845     424.9688
   1416.00220     678.9291     424.4902   1416.00220     678.9291     424.4902
   1415.98694     679.0288     424.8513   1415.98694     679.0288     424.8513
   1415.97168     678.3483     424.4086   1415.97168     678.3483     424.4086
   1415.95642     677.4520     424.5185   1415.95642     677.4520     424.5185
   1415.94116     677.0849     424.0094   1415.94116     677.0849     424.0094
   1415.92590     677.1008     423.8014   1415.92590     677.1008     423.8014
   1415.91064     676.0477     423.3698   1415.91064     676.0477     423.3698
   1415.89539     675.7587     423.7645   1415.89539     675.7587     423.7645
   1415.88013     675.0170     423.4979   1415.88013     675.0170     423.4979
   1415.86487     674.5469     423.0669   1415.86487     674.5469     423.0669
   1415.84961     674.0754     422.1467   1415.84961     674.0754     422.1467
   1415.83435     673.1634     423.0796   1415.83435     673.1634     423.0796
   1415.81909     672.8434     421.8318   1415.81909     672.8434     421.8318
   1415.80383     672.3297     422.4062   1415.80383     672.3297     422.4062
   1415.78857     672.4050     421.4102   1415.78857     672.4050     421.4102
   1415.77332     671.8448     422.0648   1415.77332     671.8448     422.0648
   1415.75806     672.1411     421.7766   1415.75806     672.1411     421.7766
   1415.74280     670.4410     420.8737   1415.74280     670.4410     420.8737
   1415.72754     670.4891     420.9331   1415.72754     670.4891     420.9331
   1415.71228     669.9618     420.9599   1415.71228     669.9618     420.9599
   1415.69702     669.1819     420.4930   1415.69702     669.1819     420.4930
   1415.68176     667.2556     421.1028   1415.68176     667.2556     421.1028
   1415.66650     667.7501     420.0217   1415.66650     667.7501     420.0217
   1415.65125     666.4263     420.1655   1415.65125     666.4263     420.1655
   1415.63599     667.0630     419.3711   1415.63599     667.0630     419.3711
   1415.62073     665.0832     419.3318   1415.62073     665.0832     419.3318
   1415.60547     665.6702     419.6034   1415.60547     665.6702     419.6034
   1415.59021     664.9789     419.1042   1415.59021     664.9789     419.1042
   1415.57495     663.5716     418.2969   1415.57495     663.5716     418.2969
   1415.55969     662.8297     418.2786   1415.55969     662.8297     418.2786
   1415.54443     661.6650     418.0525   1415.54443     661.6650     418.0525
   1415.52917     661.2304     417.4497   1415.52917     661.2304     417.4497
   1415.51392     660.5227     417.3824   1415.51392     660.5227     417.3824
   1415.49866     659.8672     417.1868   1415.49866     659.8672     417.1868
   1415.48340     658.7263     417.3335   1415.48340     658.7263     417.3335
   1415.46814     657.6566     416.3284   1415.46814     657.6566     416.3284
   1415.45288     657.2125     415.6266   1415.45288     657.2125     415.6266
   1415.43762     655.0381     416.4254   1415.43762     655.0381     416.4254
   1415.42236     656.2375     415.2812   1415.42236     656.2375     415.2812
   1415.40710     655.4026     414.9329   1415.40710     655.4026     414.9329
   1415.39185     653.5170     414.5267   1415.39185     653.5170     414.5267
   1415.37659     653.0165     414.9398   1415.37659     653.0165     414.9398
   1415.36133     651.6848     413.1486   1415.36133     651.6848     413.1486
   1415.34607     650.2539     413.2195   1415.34607     650.2539     413.2195
   1415.33081     649.7405     413.2019   1415.33081     649.7405     413.2019
   1415.31555     649.5820     413.2952   1415.31555     649.5820     413.2952
   1415.30029     648.9574     411.8637   1415.30029     648.9574     411.8637
   1415.28503     647.3613     412.4813   1415.28503     647.3613     412.4813
   1415.26978     645.7595     411.7684   1415.26978     645.7595     411.7684
   1415.25452     643.9176     411.3126   1415.25452     643.9176     411.3126
   1415.23926     643.0923     409.7096   1415.23926     643.0923     409.7096
   1415.22400     641.5452     411.1792   1415.22400     641.5452     411.1792
   1415.20874     640.5002     410.6844   1415.20874     640.5002     410.6844
   1415.19348     639.7265     410.0238   1415.19348     639.7265     410.0238
   1415.17822     640.3885     409.3377   1415.17822     640.3885     409.3377
   1415.16296     636.8600     408.4332   1415.16296     636.8600     408.4332
   1415.14771     637.2815     408.5405   1415.14771     637.2815     408.5405
   1415.13245     636.1441     408.1266   1415.13245     636.1441     408.1266
   1415.11719     634.3947     407.6501   1415.11719     634.3947     407.6501
   1415.10193     632.5116     407.0630   1415.10193     632.5116     407.0630
   1415.08667     631.3254     406.1621   1415.08667     631.3254     406.1621
   1415.07141     630.6530     406.5858   1415.07141     630.6530     406.5858
   1415.05615     628.9068     405.7043   1415.05615     628.9068     405.7043
   1415.04089     628.3699     405.1096   1415.04089     628.3699     405.1096
   1415.02563     626.3489     404.8121   1415.02563     626.3489     404.8121
   1415.01038     624.6462     403.6435   1415.01038     624.6462     403.6435
   1414.99512     622.7390     403.6773   1414.99512     622.7390     403.6773
   1414.97986     621.8071     403.8200   1414.97986     621.8071     403.8200
   1414.96460     621.5037     403.2454   1414.96460     621.5037     403.2454
   1414.94934     619.3086     401.9264   1414.94934     619.3086     401.9264
   1414.93408     618.4711     401.5409   1414.93408     618.4711     401.5409
   1414.91882     616.1064     400.7731   1414.91882     616.1064     400.7731
   1414.90356     615.4796     399.7056   1414.90356     615.4796     399.7056
   1414.88831     613.1496     400.6834   1414.88831     613.1496     400.6834
   1414.87305     612.0886     398.6662   1414.87305     612.0886     398.6662
   1414.85779     610.0059     398.4506   1414.85779     610.0059     398.4506
   1414.84253     609.2940     397.7039   1414.84253     609.2940     397.7039
   1414.82727     606.8859     396.8346   1414.82727     606.8859     396.8346
   1414.81201     604.7860     395.9892   1414.81201     604.7860     395.9892
   1414.79675     604.1353     395.7138   1414.79675     604.1353     395.7138
   1414.78149     601.9127     395.6805   1414.78149     601.9127     395.6805
   1414.76624     600.7824     394.6086   1414.76624     600.7824     394.6086
   1414.75098     599.1995     393.0568   1414.75098     599.1995     393.0568
   1414.73572     597.9688     393.3960   1414.73572     597.9688     393.3960
   1414.72046     594.6407     392.0753   1414.72046     594.6407     392.0753
   1414.70520     593.8214     391.6185   1414.70520     593.8214     391.6185
   1414.68994     591.3878     390.9211   1414.68994     591.3878     390.9211
   1414.67468     590.2026     390.0822   1414.67468     590.2026     390.0822
   1414.65942     588.7985     389.6149   1414.65942     588.7985     389.6149
   1414.64417     585.7491     389.3134   1414.64417     585.7491     389.3134
   1414.62891     584.4931     387.5303   1414.62891     584.4931     387.5303
   1414.61365     582.2007     387.0750   1414.61365     582.2007     387.0750
   1414.59839     580.3712     386.3206   1414.59839     580.3712     386.3206
   1414.58313     578.7578     385.7540   1414.58313     578.7578     385.7540
   1414.56787     576.5551     384.8020   1414.56787     576.5551     384.8020
   1414.55261     574.7681     384.1344   1414.55261     574.7681     384.1344
   1414.53735     573.5437     382.8559   1414.53735     573.5437     382.8559
   1414.52209     571.3414     382.1141   1414.52209     571.3414     382.1141
   1414.50684     568.7015     381.4753   1414.50684     568.7015     381.4753
   1414.49158     566.3761     380.3373   1414.49158     566.3761     380.3373
   1414.47632     563.5738     380.1675   1414.47632     563.5738     380.1675
   1414.46106     562.2282     378.4218   1414.46106     562.2282     378.4218
   1414.44580     559.7902     377.9976   1414.44580     559.7902     377.9976
   1414.43054     557.4553     376.9384   1414.43054     557.4553     376.9384
   1414.41528     555.9108     375.9087   1414.41528     555.9108     375.9087
   1414.40002     555.0477     375.3805   1414.40002     555.0477     375.3805
   1414.38477     552.0105     374.5010   1414.38477     552.0105     374.5010
   1414.36951     549.6330     373.4808   1414.36951     549.6330     373.4808
   1414.35425     547.8544     372.1716   1414.35425     547.8544     372.1716
   1414.33899     544.5948     371.3717   1414.33899     544.5948     371.3717
   1414.32373     542.4307     370.2050   1414.32373     542.4307     370.2050
   1414.30847     540.2216     369.6380   1414.30847     540.2216     369.6380
   1414.29321     537.8662     368.7574   1414.29321     537.8662     368.7574
   1414.27795     535.1837     367.7444   1414.27795     535.1837     367.7444
   1414.26270     533.6102     366.3922   1414.26270     533.6102     366.3922
   1414.24744     531.4474     365.7181   1414.24744     531.4474     365.7181
   1414.23218     528.7273     365.1663   1414.23218     528.7273     365.1663
   1414.21692     527.2104     363.3239   1414.21692     527.2104     363.3239
   1414.20166     523.4424     362.3869   1414.20166     523.4424     362.3869
   1414.18640     521.6049     360.9557   1414.18640     521.6049     360.9557
   1414.17114     518.6812     360.7880   1414.17114     518.6812     360.7880
   1414.15588     516.4651     358.9621   1414.15588     516.4651     358.9621
   1414.14062     515.2444     358.2614   1414.14062     515.2444     358.2614
   1414.12537     511.8932     356.5330   1414.12537     511.8932     356.5330
   1414.11011     509.3615     356.2146   1414.11011     509.3615     356.2146
   1414.09485     506.3972     354.0959   1414.09485     506.3972     354.0959
   1414.07959     504.3334     352.8505   1414.07959     504.3334     352.8505
   1414.06433     501.8446     352.1165   1414.06433     501.8446     352.1165
   1414.04907     499.4016     350.5079   1414.04907     499.4016     350.5079
   1414.03381     497.8025     350.1497   1414.03381     497.8025     350.1497
   1414.01855     495.9334     349.1092   1414.01855     495.9334     349.1092
   1414.00330     518.0286     356.5270   1414.00330     518.0286     356.5270
   1413.98804     491.2550     347.3665   1413.98804     491.2550     347.3665
   1413.97278     486.9244     345.7684   1413.97278     486.9244     345.7684
   1413.95752     484.2025     343.5087   1413.95752     484.2025     343.5087
   1413.94226     482.1375     342.7352   1413.94226     482.1375     342.7352
   1413.92700     479.2499     341.5820   1413.92700     479.2499     341.5820
   1413.91174     476.6830     340.3344   1413.91174     476.6830     340.3344
   1413.89648     474.8507     338.7072   1413.89648     474.8507     338.7072
   1413.88123     471.2215     337.8165   1413.88123     471.2215     337.8165
   1413.86597     469.3439     336.2294   1413.86597     469.3439     336.2294
   1413.85071     466.2879     335.1549   1413.85071     466.2879     335.1549
   1413.83545     462.9445     333.7334   1413.83545     462.9445     333.7334
   1413.82019     461.7358     332.5818   1413.82019     461.7358     332.5818
   1413.80493     458.6292     331.5010   1413.80493     458.6292     331.5010
   1413.78967     454.9171     329.5905   1413.78967     454.9171     329.5905
   1413.77441     453.0373     328.5420   1413.77441     453.0373     328.5420
   1413.75916     450.3062     327.6457   1413.75916     450.3062     327.6457
   1413.74390     447.4913     325.8253   1413.74390     447.4913     325.8253
   1413.72864     445.4090     324.5199   1413.72864     445.4090     324.5199
   1413.71338     443.1213     322.9958   1413.71338     443.1213     322.9958
   1413.69812     440.0958     321.9955   1413.69812     440.0958     321.9955
   1413.68286     437.8930     321.0532   1413.68286     437.8930     321.0532
   1413.66760     435.1172     318.9654   1413.66760     435.1172     318.9654
   1413.65234     432.3193     317.8560   1413.65234     432.3193     317.8560
   1413.63708     429.6910     316.4698   1413.63708     429.6910     316.4698
   1413.62183     427.4208     315.3793   1413.62183     427.4208     315.3793
   1413.60657     424.4482     313.9105   1413.60657     424.4482     313.9105
   1413.59131     422.4129     312.5781   1413.59131     422.4129     312.5781
   1413.57605     419.0293     310.7751   1413.57605     419.0293     310.7751
   1413.56079     416.7888     309.6315   1413.56079     416.7888     309.6315
   1413.54553     413.8014     308.3497   1413.54553     413.8014     308.3497
   1413.53027     411.8707     307.2253   1413.53027     411.8707     307.2253
   1413.51501     409.8297     305.6894   1413.51501     409.8297     305.6894
   1413.49976     406.5479     303.7310   1413.49976     406.5479     303.7310
   1413.48450     403.8387     302.8939   1413.48450     403.8387     302.8939
   1413.46924     402.4439     301.9362   1413.46924     402.4439     301.9362
   1413.45398     399.0940     300.5680   1413.45398     399.0940     300.5680
   1413.43872     396.8679     299.2782   1413.43872     396.8679     299.2782
   1413.42346     394.6275     297.8524   1413.42346     394.6275     297.8524
   1413.40820     391.6360     296.5690   1413.40820     391.6360     296.5690
   1413.39294     389.3523     295.2620   1413.39294     389.3523     295.2620
   1413.37769     387.0612     293.8286   1413.37769     387.0612     293.8286
   1413.36243     384.2811     292.3370   1413.36243     384.2811     292.3370
   1413.34717     381.6881     290.8289   1413.34717     381.6881     290.8289
   1413.33191     380.2722     289.8690   1413.33191     380.2722     289.8690
   1413.31665     377.5431     287.9319   1413.31665     377.5431     287.9319
   1413.30139     375.3354     287.2802   1413.30139     375.3354     287.2802
   1413.28613     372.7664     286.0258   1413.28613     372.7664     286.0258
   1413.27087     370.7910     284.5327   1413.27087     370.7910     284.5327
   1413.25562     368.4577     283.1287   1413.25562     368.4577     283.1287
   1413.24036     366.1614     281.8644   1413.24036     366.1614     281.8644
   1413.22510     363.8363     280.7582   1413.22510     363.8363     280.7582
   1413.20984     361.9081     279.5594   1413.20984     361.9081     279.5594
   1413.19458     359.7293     277.9043   1413.19458     359.7293     277.9043
   1413.17932     357.8206     277.2996   1413.17932     357.8206     277.2996
   1413.16406     355.3309     275.8643   1413.16406     355.3309     275.8643
   1413.14880     353.5937     274.7387   1413.14880     353.5937     274.7387
   1413.13354     351.0278     273.9533   1413.13354     351.0278     273.9533
   1413.11829     349.4184     272.3606   1413.11829     349.4184     272.3606
   1413.10303     347.2298     270.8336   1413.10303     347.2298     270.8336
   1413.08777     345.4829     269.8177   1413.08777     345.4829     269.8177
   1413.07251     342.9910     268.9805   1413.07251     342.9910     268.9805
   1413.05725     341.5081     267.4190   1413.05725     341.5081     267.4190
   1413.04199     339.3510     266.2184   1413.04199     339.3510     266.2184
   1413.02673     337.1899     265.1018   1413.02673     337.1899     265.1018
   1413.01147     335.9784     264.0916   1413.01147     335.9784     264.0916
   1412.99622     333.6129     263.3845   1412.99622     333.6129     263.3845
   1412.98096     331.8795     262.0382   1412.98096     331.8795     262.0382
   1412.96570     330.8313     261.3186   1412.96570     330.8313     261.3186
   1412.95044     328.5122     260.3086   1412.95044     328.5122     260.3086
   1412.93518     327.3030     259.3227   1412.93518     327.3030     259.3227
   1412.91992     325.3913     257.6844   1412.91992     325.3913     257.6844
   1412.90466     324.0041     257.2057   1412.90466     324.0041     257.2057
   1412.88940     322.4049     256.3535   1412.88940     322.4049     256.3535
   1412.87415     320.6084     255.6108   1412.87415     320.6084     255.6108
   1412.85889     319.3911     254.4109   1412.85889     319.3911     254.4109
   1412.84363     317.5571     253.2148   1412.84363     317.5571     253.2148
   1412.82837     316.8687     252.6526   1412.82837     316.8687     252.6526
   1412.81311     315.1950     251.9011   1412.81311     315.1950     251.9011
   1412.79785     314.1515     251.2510   1412.79785     314.1515     251.2510
   1412.78259     312.3438     250.7243   1412.78259     312.3438     250.7243
   1412.76733     311.2668     249.9061   1412.76733     311.2668     249.9061
   1412.75208     309.9713     249.1430   1412.75208     309.9713     249.1430
   1412.73682     309.2098     248.0673   1412.73682     309.2098     248.0673
   1412.72156     307.9750     247.4375   1412.72156     307.9750     247.4375
   1412.70630     306.4475     246.9219   1412.70630     306.4475     246.9219
   1412.69104     305.8742     246.2846   1412.69104     305.8742     246.2846
   1412.67578     304.5231     245.7134   1412.67578     304.5231     245.7134
   1412.66052     303.9867     245.2237   1412.66052     303.9867     245.2237
   1412.64526     303.0199     244.3878   1412.64526     303.0199     244.3878
   1412.63000     301.8304     244.0191   1412.63000     301.8304     244.0191
   1412.61475     300.7617     243.7340   1412.61475     300.7617     243.7340
   1412.59949     300.4069     242.9193   1412.59949     300.4069     242.9193
   1412.58423     299.3455     242.6929   1412.58423     299.3455     242.6929
   1412.56897     298.8184     241.8767   1412.56897     298.8184     241.8767
   1412.55371     298.5272     242.0862   1412.55371     298.5272     242.0862
   1412.53845     297.9893     241.8610   1412.53845     297.9893     241.8610
   1412.52319     297.5954     241.6819   1412.52319     297.5954     241.6819
   1412.50793     296.6130     241.0946   1412.50793     296.6130     241.0946
   1412.49268     296.4161     240.9757   1412.49268     296.4161     240.9757
   1412.47742     295.6085     241.0174   1412.47742     295.6085     241.0174
   1412.46216     295.3954     240.5446   1412.46216     295.3954     240.5446
   1412.44690     295.5009     240.5089   1412.44690     295.5009     240.5089
   1412.43164     294.7947     239.9249   1412.43164     294.7947     239.9249
   1412.41638     294.2901     240.2262   1412.41638     294.2901     240.2262
   1412.40112     294.6363     240.4577   1412.40112     294.6363     240.4577
   1412.38586     294.6477     240.3339   1412.38586     294.6477     240.3339
   1412.37061     294.7197     240.4141   1412.37061     294.7197     240.4141
   1412.35535     294.1051     240.7242   1412.35535     294.1051     240.7242
   1412.34009     293.8989     240.6286   1412.34009     293.8989     240.6286
   1412.32483     294.2782     240.8594   1412.32483     294.2782     240.8594
   1412.30957     294.0622     240.7807   1412.30957     294.0622     240.7807
   1412.29431     294.5695     240.8035   1412.29431     294.5695     240.8035
   1412.27905     294.4647     241.2825   1412.27905     294.4647     241.2825
   1412.26379     294.8069     241.6445   1412.26379     294.8069     241.6445
   1412.24854     295.1900     242.1619   1412.24854     295.1900     242.1619
   1412.23328     295.5274     242.3800   1412.23328     295.5274     242.3800
   1412.21802     295.7868     242.5522   1412.21802     295.7868     242.5522
   1412.20276     296.1130     243.2248   1412.20276     296.1130     243.2248