#     FILENAME=!Skynet_57528_lach-hhg-125_20417_20949.cyb.fits
#     BASENAME=Skynet_57528_lach-hhg-125_20417_20949
#     SRC_NAME=lach-hhg-125
#     OBSERVER=hhgmadison16_9500
#     DATE_OBS=2016-05-20T16:47:35.250
#        OBSID=20417
#      SCANNUM=20949
#          MJD=57528.7008
#          UTC=60544
#     SCANTYPE=track
#     DATAMODE=HIRES
#     TUNEFREQ=1420.0000
# Actual_FREQ1=1420.0000
# Actual_FREQ2=1420.0000
#    LO1Tuning=6870.000
#     RFFILTER=1355_1435
#        OBSBW=-15.6250
#        NCHAN=1024 
#        FOCUS=37.0709
#           RA=01:09:37.43
#          DEC=62:47:56.43
#      RA(hrs)=1.160400
#     DEC(deg)=62.799000
#    AZIM(deg)=331.011
#    ELEV(deg)=58.341
#     IFattens=10.00, 9.00
#      WARNING=None
#    TCAL_XL1=7.9635
#    TCAL_YR1=9.1340
#    TCAL_XL2=7.9635
#    TCAL_YR2=9.1340
#     TRX_XL1=11.7060
#     TRX_YR1=11.7060
#     TRX_XL2=11.7060
#     TRX_YR2=11.7060
#        TAVE=1.0000
#Freq1(MHz)          XL1          YR1  Freq2(MHz)          XL2          YR2 

   1427.81250     377.9454     280.7442   1427.81250     377.9454     280.7442
   1427.79724     379.3876     281.3356   1427.79724     379.3876     281.3356
   1427.78198     379.9433     282.4185   1427.78198     379.9433     282.4185
   1427.76672     379.7767     283.2763   1427.76672     379.7767     283.2763
   1427.75146     381.0414     284.2905   1427.75146     381.0414     284.2905
   1427.73621     381.2412     285.1852   1427.73621     381.2412     285.1852
   1427.72095     382.6378     286.2630   1427.72095     382.6378     286.2630
   1427.70569     383.6142     287.4584   1427.70569     383.6142     287.4584
   1427.69043     384.3935     288.0244   1427.69043     384.3935     288.0244
   1427.67517     385.7430     289.4357   1427.67517     385.7430     289.4357
   1427.65991     386.7003     290.9835   1427.65991     386.7003     290.9835
   1427.64465     388.3983     292.0866   1427.64465     388.3983     292.0866
   1427.62939     389.8087     292.8465   1427.62939     389.8087     292.8465
   1427.61414     390.5708     294.3799   1427.61414     390.5708     294.3799
   1427.59888     392.3125     296.0768   1427.59888     392.3125     296.0768
   1427.58362     393.5889     297.3694   1427.58362     393.5889     297.3694
   1427.56836     394.9715     298.8532   1427.56836     394.9715     298.8532
   1427.55310     396.4999     300.0028   1427.55310     396.4999     300.0028
   1427.53784     398.1990     301.6209   1427.53784     398.1990     301.6209
   1427.52258     398.9771     303.3367   1427.52258     398.9771     303.3367
   1427.50732     401.0095     304.3876   1427.50732     401.0095     304.3876
   1427.49207     403.5548     306.3882   1427.49207     403.5548     306.3882
   1427.47681     404.8299     307.2614   1427.47681     404.8299     307.2614
   1427.46155     406.5223     309.1336   1427.46155     406.5223     309.1336
   1427.44629     408.6885     311.2059   1427.44629     408.6885     311.2059
   1427.43103     409.6148     312.5349   1427.43103     409.6148     312.5349
   1427.41577     412.0872     314.0670   1427.41577     412.0872     314.0670
   1427.40051     414.4110     316.0290   1427.40051     414.4110     316.0290
   1427.38525     415.8787     318.2366   1427.38525     415.8787     318.2366
   1427.37000     417.9014     320.3986   1427.37000     417.9014     320.3986
   1427.35474     419.6701     321.9734   1427.35474     419.6701     321.9734
   1427.33948     421.8735     324.1119   1427.33948     421.8735     324.1119
   1427.32422     424.7420     325.4998   1427.32422     424.7420     325.4998
   1427.30896     427.0434     327.9420   1427.30896     427.0434     327.9420
   1427.29370     429.3010     330.4662   1427.29370     429.3010     330.4662
   1427.27844     432.1027     332.3381   1427.27844     432.1027     332.3381
   1427.26318     433.9535     334.0012   1427.26318     433.9535     334.0012
   1427.24792     436.9551     336.3423   1427.24792     436.9551     336.3423
   1427.23267     439.3399     338.3547   1427.23267     439.3399     338.3547
   1427.21741     441.3594     340.2515   1427.21741     441.3594     340.2515
   1427.20215     444.0565     342.4232   1427.20215     444.0565     342.4232
   1427.18689     446.4750     344.4777   1427.18689     446.4750     344.4777
   1427.17163     449.2424     347.0787   1427.17163     449.2424     347.0787
   1427.15637     450.9818     348.8303   1427.15637     450.9818     348.8303
   1427.14111     454.3831     350.9613   1427.14111     454.3831     350.9613
   1427.12585     457.0869     353.2433   1427.12585     457.0869     353.2433
   1427.11060     459.5310     355.7037   1427.11060     459.5310     355.7037
   1427.09534     462.9421     357.8614   1427.09534     462.9421     357.8614
   1427.08008     465.3208     360.1061   1427.08008     465.3208     360.1061
   1427.06482     468.0705     362.4499   1427.06482     468.0705     362.4499
   1427.04956     471.2097     364.6573   1427.04956     471.2097     364.6573
   1427.03430     474.1799     367.4410   1427.03430     474.1799     367.4410
   1427.01904     477.3397     370.1943   1427.01904     477.3397     370.1943
   1427.00378     480.3721     372.1852   1427.00378     480.3721     372.1852
   1426.98853     482.0529     374.9613   1426.98853     482.0529     374.9613
   1426.97327     485.4700     377.1766   1426.97327     485.4700     377.1766
   1426.95801     488.9415     379.5585   1426.95801     488.9415     379.5585
   1426.94275     490.4300     381.9243   1426.94275     490.4300     381.9243
   1426.92749     494.2949     384.7655   1426.92749     494.2949     384.7655
   1426.91223     498.0818     387.0391   1426.91223     498.0818     387.0391
   1426.89697     501.1199     388.8465   1426.89697     501.1199     388.8465
   1426.88171     503.8897     391.4018   1426.88171     503.8897     391.4018
   1426.86646     507.3521     394.6493   1426.86646     507.3521     394.6493
   1426.85120     509.3928     396.7935   1426.85120     509.3928     396.7935
   1426.83594     513.3820     399.8015   1426.83594     513.3820     399.8015
   1426.82068     515.7522     402.3131   1426.82068     515.7522     402.3131
   1426.80542     518.9000     404.0640   1426.80542     518.9000     404.0640
   1426.79016     522.7370     406.5572   1426.79016     522.7370     406.5572
   1426.77490     525.4537     409.0287   1426.77490     525.4537     409.0287
   1426.75964     527.9278     411.4943   1426.75964     527.9278     411.4943
   1426.74438     532.3292     414.6375   1426.74438     532.3292     414.6375
   1426.72913     534.9814     416.2933   1426.72913     534.9814     416.2933
   1426.71387     538.5112     418.9973   1426.71387     538.5112     418.9973
   1426.69861     540.9446     421.5529   1426.69861     540.9446     421.5529
   1426.68335     544.0605     424.2327   1426.68335     544.0605     424.2327
   1426.66809     548.3884     426.9453   1426.66809     548.3884     426.9453
   1426.65283     551.1049     429.6599   1426.65283     551.1049     429.6599
   1426.63757     553.7315     431.7013   1426.63757     553.7315     431.7013
   1426.62231     561.5433     436.2932   1426.62231     561.5433     436.2932
   1426.60706     561.4627     437.7348   1426.60706     561.4627     437.7348
   1426.59180     563.7943     439.2843   1426.59180     563.7943     439.2843
   1426.57654     566.4102     441.9436   1426.57654     566.4102     441.9436
   1426.56128     569.3658     444.0089   1426.56128     569.3658     444.0089
   1426.54602     573.5987     446.6923   1426.54602     573.5987     446.6923
   1426.53076     576.1328     449.4111   1426.53076     576.1328     449.4111
   1426.51550     579.2393     451.8636   1426.51550     579.2393     451.8636
   1426.50024     582.5889     453.7871   1426.50024     582.5889     453.7871
   1426.48499     585.4266     457.4913   1426.48499     585.4266     457.4913
   1426.46973     588.3238     459.1697   1426.46973     588.3238     459.1697
   1426.45447     591.9388     461.1870   1426.45447     591.9388     461.1870
   1426.43921     594.3220     463.3307   1426.43921     594.3220     463.3307
   1426.42395     598.3793     466.0608   1426.42395     598.3793     466.0608
   1426.40869     600.1293     468.5205   1426.40869     600.1293     468.5205
   1426.39343     604.2302     471.0921   1426.39343     604.2302     471.0921
   1426.37817     607.5914     473.6340   1426.37817     607.5914     473.6340
   1426.36292     610.2147     475.9031   1426.36292     610.2147     475.9031
   1426.34766     612.7184     478.0967   1426.34766     612.7184     478.0967
   1426.33240     615.8788     480.7285   1426.33240     615.8788     480.7285
   1426.31714     618.1653     482.5391   1426.31714     618.1653     482.5391
   1426.30188     622.6489     485.1056   1426.30188     622.6489     485.1056
   1426.28662     625.2572     487.4281   1426.28662     625.2572     487.4281
   1426.27136     628.0467     490.5529   1426.27136     628.0467     490.5529
   1426.25610     630.0673     491.7231   1426.25610     630.0673     491.7231
   1426.24084     633.5646     494.1159   1426.24084     633.5646     494.1159
   1426.22559     636.5994     496.8893   1426.22559     636.5994     496.8893
   1426.21033     639.4366     499.0465   1426.21033     639.4366     499.0465
   1426.19507     642.2509     500.5518   1426.19507     642.2509     500.5518
   1426.17981     644.7811     503.1074   1426.17981     644.7811     503.1074
   1426.16455     647.6610     505.4607   1426.16455     647.6610     505.4607
   1426.14929     650.9456     506.9118   1426.14929     650.9456     506.9118
   1426.13403     652.7532     510.1044   1426.13403     652.7532     510.1044
   1426.11877     656.1898     511.1204   1426.11877     656.1898     511.1204
   1426.10352     658.4193     513.5905   1426.10352     658.4193     513.5905
   1426.08826     660.5182     516.4429   1426.08826     660.5182     516.4429
   1426.07300     663.7546     517.0250   1426.07300     663.7546     517.0250
   1426.05774     666.7209     519.1957   1426.05774     666.7209     519.1957
   1426.04248     669.2904     521.9808   1426.04248     669.2904     521.9808
   1426.02722     670.7083     523.4014   1426.02722     670.7083     523.4014
   1426.01196     674.3037     525.1232   1426.01196     674.3037     525.1232
   1425.99670     676.1260     527.5770   1425.99670     676.1260     527.5770
   1425.98145     677.9897     529.6512   1425.98145     677.9897     529.6512
   1425.96619     681.7231     530.6269   1425.96619     681.7231     530.6269
   1425.95093     683.8063     534.0166   1425.95093     683.8063     534.0166
   1425.93567     686.4709     535.6889   1425.93567     686.4709     535.6889
   1425.92041     688.6818     537.4374   1425.92041     688.6818     537.4374
   1425.90515     690.2786     539.3434   1425.90515     690.2786     539.3434
   1425.88989     691.7103     540.1747   1425.88989     691.7103     540.1747
   1425.87463     695.1036     543.0433   1425.87463     695.1036     543.0433
   1425.85938     697.6815     545.3303   1425.85938     697.6815     545.3303
   1425.84412     699.4161     546.1154   1425.84412     699.4161     546.1154
   1425.82886     702.3216     547.4276   1425.82886     702.3216     547.4276
   1425.81360     703.5534     549.6053   1425.81360     703.5534     549.6053
   1425.79834     705.9180     551.3589   1425.79834     705.9180     551.3589
   1425.78308     708.2472     552.9021   1425.78308     708.2472     552.9021
   1425.76782     709.2065     555.3294   1425.76782     709.2065     555.3294
   1425.75256     711.9156     556.2659   1425.75256     711.9156     556.2659
   1425.73730     713.3652     557.5472   1425.73730     713.3652     557.5472
   1425.72205     716.8773     559.9296   1425.72205     716.8773     559.9296
   1425.70679     717.7899     560.0892   1425.70679     717.7899     560.0892
   1425.69153     719.3539     562.3898   1425.69153     719.3539     562.3898
   1425.67627     721.7538     564.1354   1425.67627     721.7538     564.1354
   1425.66101     722.1805     565.7444   1425.66101     722.1805     565.7444
   1425.64575     724.2872     568.1765   1425.64575     724.2872     568.1765
   1425.63049     725.7758     567.7928   1425.63049     725.7758     567.7928
   1425.61523     727.6547     569.6365   1425.61523     727.6547     569.6365
   1425.59998     730.1110     571.1791   1425.59998     730.1110     571.1791
   1425.58472     731.2308     572.8120   1425.58472     731.2308     572.8120
   1425.56946     732.3627     574.3498   1425.56946     732.3627     574.3498
   1425.55420     734.9782     576.1147   1425.55420     734.9782     576.1147
   1425.53894     734.4071     577.2085   1425.53894     734.4071     577.2085
   1425.52368     737.1233     578.3752   1425.52368     737.1233     578.3752
   1425.50842     737.0882     579.9564   1425.50842     737.0882     579.9564
   1425.49316     740.4073     581.2346   1425.49316     740.4073     581.2346
   1425.47791     740.2533     583.1401   1425.47791     740.2533     583.1401
   1425.46265     743.1161     582.7971   1425.46265     743.1161     582.7971
   1425.44739     743.3781     585.3978   1425.44739     743.3781     585.3978
   1425.43213     746.7126     586.1719   1425.43213     746.7126     586.1719
   1425.41687     747.1941     587.3451   1425.41687     747.1941     587.3451
   1425.40161     747.3874     587.6923   1425.40161     747.3874     587.6923
   1425.38635     749.2408     589.8897   1425.38635     749.2408     589.8897
   1425.37109     748.9821     591.0856   1425.37109     748.9821     591.0856
   1425.35583     751.3004     592.1272   1425.35583     751.3004     592.1272
   1425.34058     752.2695     593.1429   1425.34058     752.2695     593.1429
   1425.32532     752.7274     595.4649   1425.32532     752.7274     595.4649
   1425.31006     754.7658     594.9794   1425.31006     754.7658     594.9794
   1425.29480     756.1557     596.9096   1425.29480     756.1557     596.9096
   1425.27954     755.6647     597.7733   1425.27954     755.6647     597.7733
   1425.26428     757.2661     598.9947   1425.26428     757.2661     598.9947
   1425.24902     758.0659     599.6103   1425.24902     758.0659     599.6103
   1425.23376     760.1227     600.6880   1425.23376     760.1227     600.6880
   1425.21851     759.3419     601.7692   1425.21851     759.3419     601.7692
   1425.20325     759.9478     602.0708   1425.20325     759.9478     602.0708
   1425.18799     761.3851     604.1351   1425.18799     761.3851     604.1351
   1425.17273     762.1097     605.0628   1425.17273     762.1097     605.0628
   1425.15747     763.4317     605.0318   1425.15747     763.4317     605.0318
   1425.14221     763.3914     606.3906   1425.14221     763.3914     606.3906
   1425.12695     762.4551     606.8378   1425.12695     762.4551     606.8378
   1425.11169     765.1385     608.1432   1425.11169     765.1385     608.1432
   1425.09644     765.1293     609.4057   1425.09644     765.1293     609.4057
   1425.08118     766.5358     608.7257   1425.08118     766.5358     608.7257
   1425.06592     766.3651     610.8910   1425.06592     766.3651     610.8910
   1425.05066     767.0436     611.1798   1425.05066     767.0436     611.1798
   1425.03540     766.7512     612.7863   1425.03540     766.7512     612.7863
   1425.02014     768.9017     613.5594   1425.02014     768.9017     613.5594
   1425.00488     769.2000     614.3294   1425.00488     769.2000     614.3294
   1424.98962     769.8252     615.9645   1424.98962     769.8252     615.9645
   1424.97437     769.9211     615.8121   1424.97437     769.9211     615.8121
   1424.95911     768.7438     615.7056   1424.95911     768.7438     615.7056
   1424.94385     769.6420     616.4052   1424.94385     769.6420     616.4052
   1424.92859     772.5675     618.1493   1424.92859     772.5675     618.1493
   1424.91333     770.3727     618.2390   1424.91333     770.3727     618.2390
   1424.89807     771.3361     618.2187   1424.89807     771.3361     618.2187
   1424.88281     770.8846     619.7697   1424.88281     770.8846     619.7697
   1424.86755     771.8943     619.0263   1424.86755     771.8943     619.0263
   1424.85229     772.2595     620.7043   1424.85229     772.2595     620.7043
   1424.83704     770.8461     622.1011   1424.83704     770.8461     622.1011
   1424.82178     772.4979     622.2280   1424.82178     772.4979     622.2280
   1424.80652     773.2842     622.9727   1424.80652     773.2842     622.9727
   1424.79126     773.0570     622.7192   1424.79126     773.0570     622.7192
   1424.77600     774.1467     623.7791   1424.77600     774.1467     623.7791
   1424.76074     774.2262     623.8760   1424.76074     774.2262     623.8760
   1424.74548     773.7566     623.9363   1424.74548     773.7566     623.9363
   1424.73022     773.4118     624.4356   1424.73022     773.4118     624.4356
   1424.71497     772.7708     625.0956   1424.71497     772.7708     625.0956
   1424.69971     772.5068     625.4199   1424.69971     772.5068     625.4199
   1424.68445     774.1523     625.5468   1424.68445     774.1523     625.5468
   1424.66919     773.7458     626.8679   1424.66919     773.7458     626.8679
   1424.65393     773.9258     626.4805   1424.65393     773.9258     626.4805
   1424.63867     773.8882     627.8004   1424.63867     773.8882     627.8004
   1424.62341     773.4944     628.0336   1424.62341     773.4944     628.0336
   1424.60815     774.6555     628.1614   1424.60815     774.6555     628.1614
   1424.59290     772.9147     628.0321   1424.59290     772.9147     628.0321
   1424.57764     772.8920     629.5319   1424.57764     772.8920     629.5319
   1424.56238     773.3918     628.7281   1424.56238     773.3918     628.7281
   1424.54712     773.7067     629.5950   1424.54712     773.7067     629.5950
   1424.53186     772.7122     628.8940   1424.53186     772.7122     628.8940
   1424.51660     773.4275     630.0775   1424.51660     773.4275     630.0775
   1424.50134     772.8049     629.7834   1424.50134     772.8049     629.7834
   1424.48608     772.4111     632.1485   1424.48608     772.4111     632.1485
   1424.47083     772.6672     631.0292   1424.47083     772.6672     631.0292
   1424.45557     773.4330     631.6047   1424.45557     773.4330     631.6047
   1424.44031     771.8748     631.4067   1424.44031     771.8748     631.4067
   1424.42505     772.1089     631.7897   1424.42505     772.1089     631.7897
   1424.40979     771.6446     632.6100   1424.40979     771.6446     632.6100
   1424.39453     771.6694     632.9594   1424.39453     771.6694     632.9594
   1424.37927     770.1231     632.6302   1424.37927     770.1231     632.6302
   1424.36401     770.1415     633.1084   1424.36401     770.1415     633.1084
   1424.34875     771.2546     633.6130   1424.34875     771.2546     633.6130
   1424.33350     771.5948     633.1398   1424.33350     771.5948     633.1398
   1424.31824     771.2206     634.4953   1424.31824     771.2206     634.4953
   1424.30298     770.8630     632.8049   1424.30298     770.8630     632.8049
   1424.28772     769.8641     633.7751   1424.28772     769.8641     633.7751
   1424.27246     769.8141     633.1666   1424.27246     769.8141     633.1666
   1424.25720     769.1260     633.1954   1424.25720     769.1260     633.1954
   1424.24194     769.2466     635.3395   1424.24194     769.2466     635.3395
   1424.22668     768.6472     633.6449   1424.22668     768.6472     633.6449
   1424.21143     767.5245     635.0752   1424.21143     767.5245     635.0752
   1424.19617     768.5615     634.3434   1424.19617     768.5615     634.3434
   1424.18091     767.4432     635.9643   1424.18091     767.4432     635.9643
   1424.16565     767.7615     634.0610   1424.16565     767.7615     634.0610
   1424.15039     767.4881     635.4913   1424.15039     767.4881     635.4913
   1424.13513     766.7833     634.1185   1424.13513     766.7833     634.1185
   1424.11987     767.1595     635.2104   1424.11987     767.1595     635.2104
   1424.10461     766.5266     635.5283   1424.10461     766.5266     635.5283
   1424.08936     765.7140     634.7662   1424.08936     765.7140     634.7662
   1424.07410     765.3091     634.4011   1424.07410     765.3091     634.4011
   1424.05884     766.4241     634.9586   1424.05884     766.4241     634.9586
   1424.04358     763.6617     634.6865   1424.04358     763.6617     634.6865
   1424.02832     764.8189     635.0494   1424.02832     764.8189     635.0494
   1424.01306     764.3324     635.7889   1424.01306     764.3324     635.7889
   1423.99780     763.9792     634.3322   1423.99780     763.9792     634.3322
   1423.98254     764.3925     634.6988   1423.98254     764.3925     634.6988
   1423.96729     763.3080     635.0935   1423.96729     763.3080     635.0935
   1423.95203     761.4750     635.7625   1423.95203     761.4750     635.7625
   1423.93677     760.9443     634.5011   1423.93677     760.9443     634.5011
   1423.92151     762.1223     635.2615   1423.92151     762.1223     635.2615
   1423.90625     761.8615     634.8859   1423.90625     761.8615     634.8859
   1423.89099     762.0350     635.3727   1423.89099     762.0350     635.3727
   1423.87573     760.0710     634.4388   1423.87573     760.0710     634.4388
   1423.86047     760.8067     633.8320   1423.86047     760.8067     633.8320
   1423.84521     760.3245     635.3538   1423.84521     760.3245     635.3538
   1423.82996     759.5745     633.8649   1423.82996     759.5745     633.8649
   1423.81470     759.5886     633.8928   1423.81470     759.5886     633.8928
   1423.79944     758.8487     634.2944   1423.79944     758.8487     634.2944
   1423.78418     758.3729     633.6352   1423.78418     758.3729     633.6352
   1423.76892     758.2180     634.1813   1423.76892     758.2180     634.1813
   1423.75366     757.8651     633.6227   1423.75366     757.8651     633.6227
   1423.73840     758.0677     633.7220   1423.73840     758.0677     633.7220
   1423.72314     756.2166     632.9756   1423.72314     756.2166     632.9756
   1423.70789     757.0210     633.1108   1423.70789     757.0210     633.1108
   1423.69263     755.5314     632.6121   1423.69263     755.5314     632.6121
   1423.67737     755.2588     632.9305   1423.67737     755.2588     632.9305
   1423.66211     755.1431     631.6699   1423.66211     755.1431     631.6699
   1423.64685     754.5578     632.0130   1423.64685     754.5578     632.0130
   1423.63159     754.4883     632.8820   1423.63159     754.4883     632.8820
   1423.61633     753.9850     630.7656   1423.61633     753.9850     630.7656
   1423.60107     753.4626     630.5660   1423.60107     753.4626     630.5660
   1423.58582     752.6700     630.9886   1423.58582     752.6700     630.9886
   1423.57056     752.2766     630.3612   1423.57056     752.2766     630.3612
   1423.55530     751.9119     630.7324   1423.55530     751.9119     630.7324
   1423.54004     751.2389     630.7239   1423.54004     751.2389     630.7239
   1423.52478     752.0233     629.1917   1423.52478     752.0233     629.1917
   1423.50952     751.1581     629.2179   1423.50952     751.1581     629.2179
   1423.49426     750.7895     628.4760   1423.49426     750.7895     628.4760
   1423.47900     750.5417     627.9277   1423.47900     750.5417     627.9277
   1423.46375     750.0402     629.2083   1423.46375     750.0402     629.2083
   1423.44849     748.9412     627.1536   1423.44849     748.9412     627.1536
   1423.43323     749.3016     627.6686   1423.43323     749.3016     627.6686
   1423.41797     748.4279     626.8685   1423.41797     748.4279     626.8685
   1423.40271     748.6392     627.7391   1423.40271     748.6392     627.7391
   1423.38745     747.9665     625.4747   1423.38745     747.9665     625.4747
   1423.37219     746.2005     625.7193   1423.37219     746.2005     625.7193
   1423.35693     747.5720     626.2959   1423.35693     747.5720     626.2959
   1423.34167     746.8976     625.4222   1423.34167     746.8976     625.4222
   1423.32642     745.8923     624.5447   1423.32642     745.8923     624.5447
   1423.31116     746.9264     624.8214   1423.31116     746.9264     624.8214
   1423.29590     744.2615     623.2210   1423.29590     744.2615     623.2210
   1423.28064     745.0528     623.5586   1423.28064     745.0528     623.5586
   1423.26538     744.8752     623.7143   1423.26538     744.8752     623.7143
   1423.25012     744.7939     623.0355   1423.25012     744.7939     623.0355
   1423.23486     744.1304     622.3132   1423.23486     744.1304     622.3132
   1423.21960     743.9460     621.6047   1423.21960     743.9460     621.6047
   1423.20435     744.1834     620.7014   1423.20435     744.1834     620.7014
   1423.18909     743.2469     622.7184   1423.18909     743.2469     622.7184
   1423.17383     742.7208     620.6440   1423.17383     742.7208     620.6440
   1423.15857     742.0327     620.3013   1423.15857     742.0327     620.3013
   1423.14331     742.7294     619.0274   1423.14331     742.7294     619.0274
   1423.12805     740.8998     618.8223   1423.12805     740.8998     618.8223
   1423.11279     741.8268     618.5570   1423.11279     741.8268     618.5570
   1423.09753     740.5651     617.4861   1423.09753     740.5651     617.4861
   1423.08228     740.4032     617.6843   1423.08228     740.4032     617.6843
   1423.06702     740.9174     616.6075   1423.06702     740.9174     616.6075
   1423.05176     739.8947     615.0944   1423.05176     739.8947     615.0944
   1423.03650     739.5634     615.8020   1423.03650     739.5634     615.8020
   1423.02124     739.1277     615.3103   1423.02124     739.1277     615.3103
   1423.00598     738.2361     614.1769   1423.00598     738.2361     614.1769
   1422.99072     738.0026     615.1068   1422.99072     738.0026     615.1068
   1422.97546     737.1278     613.3011   1422.97546     737.1278     613.3011
   1422.96021     737.6999     612.7542   1422.96021     737.6999     612.7542
   1422.94495     737.7773     613.1285   1422.94495     737.7773     613.1285
   1422.92969     737.0426     612.4474   1422.92969     737.0426     612.4474
   1422.91443     737.6036     611.7014   1422.91443     737.6036     611.7014
   1422.89917     738.1058     611.5515   1422.89917     738.1058     611.5515
   1422.88391     736.6540     609.9801   1422.88391     736.6540     609.9801
   1422.86865     736.5062     609.0413   1422.86865     736.5062     609.0413
   1422.85339     735.8242     608.3802   1422.85339     735.8242     608.3802
   1422.83813     735.4291     608.3268   1422.83813     735.4291     608.3268
   1422.82288     735.1669     607.6827   1422.82288     735.1669     607.6827
   1422.80762     735.1858     606.8123   1422.80762     735.1858     606.8123
   1422.79236     733.5722     604.6433   1422.79236     733.5722     604.6433
   1422.77710     733.9711     605.4830   1422.77710     733.9711     605.4830
   1422.76184     734.4351     605.8325   1422.76184     734.4351     605.8325
   1422.74658     734.2822     603.3586   1422.74658     734.2822     603.3586
   1422.73132     733.4972     603.5568   1422.73132     733.4972     603.5568
   1422.71606     733.0607     602.0647   1422.71606     733.0607     602.0647
   1422.70081     733.2173     601.6376   1422.70081     733.2173     601.6376
   1422.68555     732.2256     601.3180   1422.68555     732.2256     601.3180
   1422.67029     732.8655     599.2923   1422.67029     732.8655     599.2923
   1422.65503     731.7916     599.3569   1422.65503     731.7916     599.3569
   1422.63977     732.4633     599.5375   1422.63977     732.4633     599.5375
   1422.62451     732.7505     597.6569   1422.62451     732.7505     597.6569
   1422.60925     732.3114     597.5262   1422.60925     732.3114     597.5262
   1422.59399     731.6320     595.8138   1422.59399     731.6320     595.8138
   1422.57874     732.0717     595.4734   1422.57874     732.0717     595.4734
   1422.56348     731.4645     594.5302   1422.56348     731.4645     594.5302
   1422.54822     730.7506     594.3802   1422.54822     730.7506     594.3802
   1422.53296     730.5226     593.6799   1422.53296     730.5226     593.6799
   1422.51770     730.4788     592.4134   1422.51770     730.4788     592.4134
   1422.50244     729.8302     591.4777   1422.50244     729.8302     591.4777
   1422.48718     730.2005     590.5538   1422.48718     730.2005     590.5538
   1422.47192     729.3455     589.9434   1422.47192     729.3455     589.9434
   1422.45667     729.0084     588.2883   1422.45667     729.0084     588.2883
   1422.44141     728.5206     588.1143   1422.44141     728.5206     588.1143
   1422.42615     728.6552     588.0432   1422.42615     728.6552     588.0432
   1422.41089     728.5224     586.9765   1422.41089     728.5224     586.9765
   1422.39563     728.5824     586.0549   1422.39563     728.5824     586.0549
   1422.38037     728.4744     585.0986   1422.38037     728.4744     585.0986
   1422.36511     727.6949     584.0710   1422.36511     727.6949     584.0710
   1422.34985     728.4991     583.8724   1422.34985     728.4991     583.8724
   1422.33459     727.2242     582.8227   1422.33459     727.2242     582.8227
   1422.31934     726.6423     582.0565   1422.31934     726.6423     582.0565
   1422.30408     728.2818     581.1487   1422.30408     728.2818     581.1487
   1422.28882     727.9996     579.4585   1422.28882     727.9996     579.4585
   1422.27356     725.6945     579.2573   1422.27356     725.6945     579.2573
   1422.25830     725.7885     578.1523   1422.25830     725.7885     578.1523
   1422.24304     727.5884     577.5067   1422.24304     727.5884     577.5067
   1422.22778     728.2762     576.4683   1422.22778     728.2762     576.4683
   1422.21252     726.6376     575.7441   1422.21252     726.6376     575.7441
   1422.19727     725.7613     574.6374   1422.19727     725.7613     574.6374
   1422.18201     726.2389     574.4581   1422.18201     726.2389     574.4581
   1422.16675     726.9665     573.3212   1422.16675     726.9665     573.3212
   1422.15149     724.9971     571.2087   1422.15149     724.9971     571.2087
   1422.13623     725.4930     570.5413   1422.13623     725.4930     570.5413
   1422.12097     724.9131     570.4442   1422.12097     724.9131     570.4442
   1422.10571     725.3649     568.0710   1422.10571     725.3649     568.0710
   1422.09045     724.7943     568.2415   1422.09045     724.7943     568.2415
   1422.07520     723.7149     567.1547   1422.07520     723.7149     567.1547
   1422.05994     724.9431     565.6524   1422.05994     724.9431     565.6524
   1422.04468     723.7390     566.6503   1422.04468     723.7390     566.6503
   1422.02942     723.4648     564.8602   1422.02942     723.4648     564.8602
   1422.01416     723.2736     563.7626   1422.01416     723.2736     563.7626
   1421.99890     724.3202     562.1849   1421.99890     724.3202     562.1849
   1421.98364     722.1022     561.1480   1421.98364     722.1022     561.1480
   1421.96838     722.5148     559.3990   1421.96838     722.5148     559.3990
   1421.95312     723.0709     560.3018   1421.95312     723.0709     560.3018
   1421.93787     723.4041     558.5304   1421.93787     723.4041     558.5304
   1421.92261     722.1890     557.2408   1421.92261     722.1890     557.2408
   1421.90735     721.8396     556.2679   1421.90735     721.8396     556.2679
   1421.89209     722.3719     556.0990   1421.89209     722.3719     556.0990
   1421.87683     722.4837     554.0390   1421.87683     722.4837     554.0390
   1421.86157     721.6096     553.5383   1421.86157     721.6096     553.5383
   1421.84631     720.9183     552.5624   1421.84631     720.9183     552.5624
   1421.83105     721.3999     551.5424   1421.83105     721.3999     551.5424
   1421.81580     721.7302     550.4515   1421.81580     721.7302     550.4515
   1421.80054     720.3642     548.8093   1421.80054     720.3642     548.8093
   1421.78528     721.1865     548.8384   1421.78528     721.1865     548.8384
   1421.77002     721.3745     547.1046   1421.77002     721.3745     547.1046
   1421.75476     721.3643     546.8350   1421.75476     721.3643     546.8350
   1421.73950     720.8786     545.3333   1421.73950     720.8786     545.3333
   1421.72424     719.4804     543.4679   1421.72424     719.4804     543.4679
   1421.70898     720.3777     542.5239   1421.70898     720.3777     542.5239
   1421.69373     721.0364     541.4057   1421.69373     721.0364     541.4057
   1421.67847     719.5772     541.7171   1421.67847     719.5772     541.7171
   1421.66321     719.2003     540.2668   1421.66321     719.2003     540.2668
   1421.64795     719.8022     538.9957   1421.64795     719.8022     538.9957
   1421.63269     719.6859     538.4705   1421.63269     719.6859     538.4705
   1421.61743     718.8885     537.2941   1421.61743     718.8885     537.2941
   1421.60217     718.7258     535.1117   1421.60217     718.7258     535.1117
   1421.58691     718.6385     535.2020   1421.58691     718.6385     535.2020
   1421.57166     718.1783     534.2889   1421.57166     718.1783     534.2889
   1421.55640     718.7450     533.2449   1421.55640     718.7450     533.2449
   1421.54114     719.5355     532.3197   1421.54114     719.5355     532.3197
   1421.52588     719.1966     532.0572   1421.52588     719.1966     532.0572
   1421.51062     720.2123     530.3965   1421.51062     720.2123     530.3965
   1421.49536     719.9750     529.3799   1421.49536     719.9750     529.3799
   1421.48010     719.7339     528.5929   1421.48010     719.7339     528.5929
   1421.46484     719.8156     526.9465   1421.46484     719.8156     526.9465
   1421.44958     720.4005     526.8458   1421.44958     720.4005     526.8458
   1421.43433     719.9846     526.8727   1421.43433     719.9846     526.8727
   1421.41907     721.0883     526.2798   1421.41907     721.0883     526.2798
   1421.40381     720.7932     525.8733   1421.40381     720.7932     525.8733
   1421.38855     721.3699     524.0330   1421.38855     721.3699     524.0330
   1421.37329     720.0238     522.6110   1421.37329     720.0238     522.6110
   1421.35803     721.2579     522.3412   1421.35803     721.2579     522.3412
   1421.34277     719.3134     520.1278   1421.34277     719.3134     520.1278
   1421.32751     719.1432     520.0065   1421.32751     719.1432     520.0065
   1421.31226     720.2452     518.2156   1421.31226     720.2452     518.2156
   1421.29700     719.4896     517.2040   1421.29700     719.4896     517.2040
   1421.28174     718.4507     515.7865   1421.28174     718.4507     515.7865
   1421.26648     716.4354     515.0521   1421.26648     716.4354     515.0521
   1421.25122     718.0094     513.1377   1421.25122     718.0094     513.1377
   1421.23596     718.8557     512.4485   1421.23596     718.8557     512.4485
   1421.22070     716.8613     511.7938   1421.22070     716.8613     511.7938
   1421.20544     716.4170     509.7733   1421.20544     716.4170     509.7733
   1421.19019     717.4361     509.0749   1421.19019     717.4361     509.0749
   1421.17493     716.5840     508.4043   1421.17493     716.5840     508.4043
   1421.15967     717.2117     507.2790   1421.15967     717.2117     507.2790
   1421.14441     717.8327     506.8647   1421.14441     717.8327     506.8647
   1421.12915     717.9538     506.8759   1421.12915     717.9538     506.8759
   1421.11389     722.9416     508.1295   1421.11389     722.9416     508.1295
   1421.09863     725.9849     509.8963   1421.09863     725.9849     509.8963
   1421.08337     730.8135     512.4717   1421.08337     730.8135     512.4717
   1421.06812     736.8216     515.5876   1421.06812     736.8216     515.5876
   1421.05286     745.3107     519.8834   1421.05286     745.3107     519.8834
   1421.03760     756.6685     527.0041   1421.03760     756.6685     527.0041
   1421.02234     777.4202     539.7779   1421.02234     777.4202     539.7779
   1421.00708     791.9533     549.7447   1421.00708     791.9533     549.7447
   1420.99182     786.9706     545.4511   1420.99182     786.9706     545.4511
   1420.97656     796.5765     549.6863   1420.97656     796.5765     549.6863
   1420.96130     828.0958     573.2624   1420.96130     828.0958     573.2624
   1420.94604     919.9305     631.5139   1420.94604     919.9305     631.5139
   1420.93079    1100.8655     749.8594   1420.93079    1100.8655     749.8594
   1420.91553    1053.2766     717.5856   1420.91553    1053.2766     717.5856
   1420.90027     902.4643     615.7924   1420.90027     902.4643     615.7924
   1420.88501     895.8512     611.3643   1420.88501     895.8512     611.3643
   1420.86975     926.4662     630.8627   1420.86975     926.4662     630.8627
   1420.85449     972.7350     657.8420   1420.85449     972.7350     657.8420
   1420.83923    1016.4453     686.4040   1420.83923    1016.4453     686.4040
   1420.82397    1053.0967     710.8840   1420.82397    1053.0967     710.8840
   1420.80872    1119.2731     751.9789   1420.80872    1119.2731     751.9789
   1420.79346    1272.2684     851.1828   1420.79346    1272.2684     851.1828
   1420.77820    1518.8595    1014.2130   1420.77820    1518.8595    1014.2130
   1420.76294    1582.9828    1054.8923   1420.76294    1582.9828    1054.8923
   1420.74768    1491.2015     993.0722   1420.74768    1491.2015     993.0722
   1420.73242    1565.0189    1039.7670   1420.73242    1565.0189    1039.7670
   1420.71716    1765.2172    1170.8552   1420.71716    1765.2172    1170.8552
   1420.70190    1797.5382    1187.0203   1420.70190    1797.5382    1187.0203
   1420.68665    1926.9865    1268.9379   1420.68665    1926.9865    1268.9379
   1420.67139    2091.9868    1370.0044   1420.67139    2091.9868    1370.0044
   1420.65613    2172.2310    1424.0402   1420.65613    2172.2310    1424.0402
   1420.64087    1989.1257    1298.1554   1420.64087    1989.1257    1298.1554
   1420.62561    1754.5056    1146.6016   1420.62561    1754.5056    1146.6016
   1420.61035    1517.5803     993.7852   1420.61035    1517.5803     993.7852
   1420.59509    1242.5013     812.8064   1420.59509    1242.5013     812.8064
   1420.57983    1108.3185     725.9135   1420.57983    1108.3185     725.9135
   1420.56458    1081.9026     706.4648   1420.56458    1081.9026     706.4648
   1420.54932    1241.8606     807.0419   1420.54932    1241.8606     807.0419
   1420.53406    1457.0946     944.6016   1420.53406    1457.0946     944.6016
   1420.51880    1817.9491    1172.5339   1420.51880    1817.9491    1172.5339
   1420.50354    1987.9802    1279.1704   1420.50354    1987.9802    1279.1704
   1420.48828    1822.2509    1171.2222   1420.48828    1822.2509    1171.2222
   1420.47302    1626.7250    1047.9147   1420.47302    1626.7250    1047.9147
   1420.45776    1667.5349    1074.1899   1420.45776    1667.5349    1074.1899
   1420.44250    1644.7207    1053.6410   1420.44250    1644.7207    1053.6410
   1420.42725    1143.4142     736.5265   1420.42725    1143.4142     736.5265
   1420.41199     894.4268     578.2523   1420.41199     894.4268     578.2523
   1420.39673     794.8308     515.0928   1420.39673     794.8308     515.0928
   1420.38147     752.8851     487.0935   1420.38147     752.8851     487.0935
   1420.36621     733.3199     475.5523   1420.36621     733.3199     475.5523
   1420.35095     724.3040     468.2545   1420.35095     724.3040     468.2545
   1420.33569     718.4225     464.0120   1420.33569     718.4225     464.0120
   1420.32043     715.1436     461.5157   1420.32043     715.1436     461.5157
   1420.30518     713.3211     459.4474   1420.30518     713.3211     459.4474
   1420.28992     711.3611     457.7695   1420.28992     711.3611     457.7695
   1420.27466     710.7245     456.7450   1420.27466     710.7245     456.7450
   1420.25940     710.5330     455.9406   1420.25940     710.5330     455.9406
   1420.24414     710.2173     454.8753   1420.24414     710.2173     454.8753
   1420.22888     710.5247     453.9424   1420.22888     710.5247     453.9424
   1420.21362     708.4657     452.2264   1420.21362     708.4657     452.2264
   1420.19836     706.8180     450.9474   1420.19836     706.8180     450.9474
   1420.18311     706.6647     450.1784   1420.18311     706.6647     450.1784
   1420.16785     705.3764     448.6930   1420.16785     705.3764     448.6930
   1420.15259     705.5818     448.4518   1420.15259     705.5818     448.4518
   1420.13733     704.0421     447.1607   1420.13733     704.0421     447.1607
   1420.12207     704.4362     446.3582   1420.12207     704.4362     446.3582
   1420.10681     702.2542     445.2719   1420.10681     702.2542     445.2719
   1420.09155     702.1537     444.2463   1420.09155     702.1537     444.2463
   1420.07629     701.7795     442.8056   1420.07629     701.7795     442.8056
   1420.06104     701.8475     443.0685   1420.06104     701.8475     443.0685
   1420.04578     702.2546     442.3181   1420.04578     702.2546     442.3181
   1420.03052     699.8148     442.0188   1420.03052     699.8148     442.0188
   1420.01526     701.9291     442.1238   1420.01526     701.9291     442.1238
   1420.00000     702.3302     442.5605   1420.00000     702.3302     442.5605
   1419.98474     702.7311     442.9973   1419.98474     702.7311     442.9973
   1419.96948     703.2341     440.3608   1419.96948     703.2341     440.3608
   1419.95422     700.8485     438.2115   1419.95422     700.8485     438.2115
   1419.93896     700.4846     437.9565   1419.93896     700.4846     437.9565
   1419.92371     701.1074     437.4958   1419.92371     701.1074     437.4958
   1419.90845     700.8408     437.5602   1419.90845     700.8408     437.5602
   1419.89319     701.3069     436.9497   1419.89319     701.3069     436.9497
   1419.87793     701.9197     436.6531   1419.87793     701.9197     436.6531
   1419.86267     701.4104     436.0418   1419.86267     701.4104     436.0418
   1419.84741     700.5413     436.0140   1419.84741     700.5413     436.0140
   1419.83215     701.4185     435.1214   1419.83215     701.4185     435.1214
   1419.81689     700.5244     434.2014   1419.81689     700.5244     434.2014
   1419.80164     700.7040     434.6199   1419.80164     700.7040     434.6199
   1419.78638     699.5148     434.0636   1419.78638     699.5148     434.0636
   1419.77112     701.9479     434.2063   1419.77112     701.9479     434.2063
   1419.75586     700.4591     433.3588   1419.75586     700.4591     433.3588
   1419.74060     700.9541     434.1361   1419.74060     700.9541     434.1361
   1419.72534     701.3857     433.0645   1419.72534     701.3857     433.0645
   1419.71008     701.7439     432.9211   1419.71008     701.7439     432.9211
   1419.69482     702.0504     432.7173   1419.69482     702.0504     432.7173
   1419.67957     700.7261     432.5663   1419.67957     700.7261     432.5663
   1419.66431     702.0593     431.8088   1419.66431     702.0593     431.8088
   1419.64905     701.9718     431.9680   1419.64905     701.9718     431.9680
   1419.63379     702.3297     431.1607   1419.63379     702.3297     431.1607
   1419.61853     702.4758     431.5564   1419.61853     702.4758     431.5564
   1419.60327     704.0115     431.8126   1419.60327     704.0115     431.8126
   1419.58801     703.0050     430.8200   1419.58801     703.0050     430.8200
   1419.57275     703.9283     431.4097   1419.57275     703.9283     431.4097
   1419.55750     704.9033     431.1504   1419.55750     704.9033     431.1504
   1419.54224     703.1309     430.9928   1419.54224     703.1309     430.9928
   1419.52698     705.3692     431.1071   1419.52698     705.3692     431.1071
   1419.51172     704.6643     430.4567   1419.51172     704.6643     430.4567
   1419.49646     705.0577     431.1635   1419.49646     705.0577     431.1635
   1419.48120     705.5199     430.2938   1419.48120     705.5199     430.2938
   1419.46594     705.3707     430.7515   1419.46594     705.3707     430.7515
   1419.45068     704.7431     430.2205   1419.45068     704.7431     430.2205
   1419.43542     705.9725     430.5408   1419.43542     705.9725     430.5408
   1419.42017     705.3469     430.7933   1419.42017     705.3469     430.7933
   1419.40491     706.4700     430.4992   1419.40491     706.4700     430.4992
   1419.38965     707.5129     430.8856   1419.38965     707.5129     430.8856
   1419.37439     706.8137     430.3489   1419.37439     706.8137     430.3489
   1419.35913     708.0491     430.1229   1419.35913     708.0491     430.1229
   1419.34387     707.2620     429.8484   1419.34387     707.2620     429.8484
   1419.32861     708.6105     430.9789   1419.32861     708.6105     430.9789
   1419.31335     708.1039     431.3624   1419.31335     708.1039     431.3624
   1419.29810     708.5806     430.3785   1419.29810     708.5806     430.3785
   1419.28284     709.1479     431.5276   1419.28284     709.1479     431.5276
   1419.26758     708.5275     431.3246   1419.26758     708.5275     431.3246
   1419.25232     710.2291     431.4972   1419.25232     710.2291     431.4972
   1419.23706     710.5143     431.4636   1419.23706     710.5143     431.4636
   1419.22180     710.1359     431.5728   1419.22180     710.1359     431.5728
   1419.20654     711.4239     431.3163   1419.20654     711.4239     431.3163
   1419.19128     711.7897     432.1172   1419.19128     711.7897     432.1172
   1419.17603     711.7344     432.3282   1419.17603     711.7344     432.3282
   1419.16077     711.5555     432.1564   1419.16077     711.5555     432.1564
   1419.14551     711.3292     432.5222   1419.14551     711.3292     432.5222
   1419.13025     713.4879     433.3745   1419.13025     713.4879     433.3745
   1419.11499     712.9540     433.1950   1419.11499     712.9540     433.1950
   1419.09973     713.6660     432.8396   1419.09973     713.6660     432.8396
   1419.08447     712.6422     434.0622   1419.08447     712.6422     434.0622
   1419.06921     713.4382     433.6239   1419.06921     713.4382     433.6239
   1419.05396     715.2349     434.7034   1419.05396     715.2349     434.7034
   1419.03870     715.1687     434.2774   1419.03870     715.1687     434.2774
   1419.02344     714.9634     434.8409   1419.02344     714.9634     434.8409
   1419.00818     716.6404     435.3892   1419.00818     716.6404     435.3892
   1418.99292     715.5436     435.6674   1418.99292     715.5436     435.6674
   1418.97766     715.9787     436.1711   1418.97766     715.9787     436.1711
   1418.96240     717.1559     436.6776   1418.96240     717.1559     436.6776
   1418.94714     718.1695     436.5045   1418.94714     718.1695     436.5045
   1418.93188     717.6937     437.3765   1418.93188     717.6937     437.3765
   1418.91663     718.3679     437.3155   1418.91663     718.3679     437.3155
   1418.90137     720.1577     438.0757   1418.90137     720.1577     438.0757
   1418.88611     720.7556     438.3045   1418.88611     720.7556     438.3045
   1418.87085     721.4769     439.2326   1418.87085     721.4769     439.2326
   1418.85559     720.9622     439.6833   1418.85559     720.9622     439.6833
   1418.84033     721.3818     439.9330   1418.84033     721.3818     439.9330
   1418.82507     722.6526     440.5199   1418.82507     722.6526     440.5199
   1418.80981     722.7551     441.1302   1418.80981     722.7551     441.1302
   1418.79456     722.9967     441.4637   1418.79456     722.9967     441.4637
   1418.77930     724.0980     442.5636   1418.77930     724.0980     442.5636
   1418.76404     724.5916     442.0480   1418.76404     724.5916     442.0480
   1418.74878     725.3325     443.0594   1418.74878     725.3325     443.0594
   1418.73352     726.0334     443.3577   1418.73352     726.0334     443.3577
   1418.71826     726.8151     444.3052   1418.71826     726.8151     444.3052
   1418.70300     726.8149     445.2551   1418.70300     726.8149     445.2551
   1418.68774     726.5660     445.8548   1418.68774     726.5660     445.8548
   1418.67249     727.7900     446.4514   1418.67249     727.7900     446.4514
   1418.65723     729.1414     447.0440   1418.65723     729.1414     447.0440
   1418.64197     729.7952     447.6077   1418.64197     729.7952     447.6077
   1418.62671     729.9020     448.5473   1418.62671     729.9020     448.5473
   1418.61145     730.7377     448.7745   1418.61145     730.7377     448.7745
   1418.59619     731.2698     450.2641   1418.59619     731.2698     450.2641
   1418.58093     731.9356     449.7980   1418.58093     731.9356     449.7980
   1418.56567     732.7704     450.5774   1418.56567     732.7704     450.5774
   1418.55042     734.0452     451.2744   1418.55042     734.0452     451.2744
   1418.53516     733.0566     452.1906   1418.53516     733.0566     452.1906
   1418.51990     733.5385     453.1966   1418.51990     733.5385     453.1966
   1418.50464     734.8261     453.5612   1418.50464     734.8261     453.5612
   1418.48938     736.3769     454.9341   1418.48938     736.3769     454.9341
   1418.47412     737.3919     454.8289   1418.47412     737.3919     454.8289
   1418.45886     737.5835     455.8310   1418.45886     737.5835     455.8310
   1418.44360     737.8651     456.4243   1418.44360     737.8651     456.4243
   1418.42834     739.0459     457.2203   1418.42834     739.0459     457.2203
   1418.41309     738.3900     458.2623   1418.41309     738.3900     458.2623
   1418.39783     740.8787     459.1348   1418.39783     740.8787     459.1348
   1418.38257     740.4969     460.1212   1418.38257     740.4969     460.1212
   1418.36731     742.1131     460.9993   1418.36731     742.1131     460.9993
   1418.35205     743.2648     461.5912   1418.35205     743.2648     461.5912
   1418.33679     744.6053     462.7656   1418.33679     744.6053     462.7656
   1418.32153     744.4808     463.5998   1418.32153     744.4808     463.5998
   1418.30627     744.6227     464.7986   1418.30627     744.6227     464.7986
   1418.29102     745.7849     464.9370   1418.29102     745.7849     464.9370
   1418.27576     745.8926     465.7681   1418.27576     745.8926     465.7681
   1418.26050     747.7617     467.8908   1418.26050     747.7617     467.8908
   1418.24524     748.0028     467.9656   1418.24524     748.0028     467.9656
   1418.22998     748.8363     469.1628   1418.22998     748.8363     469.1628
   1418.21472     750.3668     469.5293   1418.21472     750.3668     469.5293
   1418.19946     750.3043     470.6201   1418.19946     750.3043     470.6201
   1418.18420     749.9275     472.0176   1418.18420     749.9275     472.0176
   1418.16895     752.8142     472.7636   1418.16895     752.8142     472.7636
   1418.15369     753.4963     473.4711   1418.15369     753.4963     473.4711
   1418.13843     753.1231     474.8970   1418.13843     753.1231     474.8970
   1418.12317     754.7213     475.2142   1418.12317     754.7213     475.2142
   1418.10791     756.1863     476.2076   1418.10791     756.1863     476.2076
   1418.09265     756.5921     477.4435   1418.09265     756.5921     477.4435
   1418.07739     757.7159     478.6359   1418.07739     757.7159     478.6359
   1418.06213     757.5374     479.4131   1418.06213     757.5374     479.4131
   1418.04688     758.4587     480.8265   1418.04688     758.4587     480.8265
   1418.03162     759.9356     480.8922   1418.03162     759.9356     480.8922
   1418.01636     760.6840     483.0130   1418.01636     760.6840     483.0130
   1418.00110     761.7950     483.6863   1418.00110     761.7950     483.6863
   1417.98584     762.6505     484.8231   1417.98584     762.6505     484.8231
   1417.97058     762.3273     486.0291   1417.97058     762.3273     486.0291
   1417.95532     764.6663     486.9931   1417.95532     764.6663     486.9931
   1417.94006     764.1781     488.8369   1417.94006     764.1781     488.8369
   1417.92480     765.0726     489.7871   1417.92480     765.0726     489.7871
   1417.90955     767.3267     490.2523   1417.90955     767.3267     490.2523
   1417.89429     767.1745     491.4239   1417.89429     767.1745     491.4239
   1417.87903     767.6542     492.6184   1417.87903     767.6542     492.6184
   1417.86377     768.3179     493.6134   1417.86377     768.3179     493.6134
   1417.84851     769.9562     495.2190   1417.84851     769.9562     495.2190
   1417.83325     771.8016     496.0765   1417.83325     771.8016     496.0765
   1417.81799     771.6746     496.2070   1417.81799     771.6746     496.2070
   1417.80273     772.4690     498.5469   1417.80273     772.4690     498.5469
   1417.78748     773.5765     499.4110   1417.78748     773.5765     499.4110
   1417.77222     774.1032     500.3331   1417.77222     774.1032     500.3331
   1417.75696     774.9246     501.5710   1417.75696     774.9246     501.5710
   1417.74170     776.6084     502.1297   1417.74170     776.6084     502.1297
   1417.72644     777.3836     503.6089   1417.72644     777.3836     503.6089
   1417.71118     777.4821     504.9436   1417.71118     777.4821     504.9436
   1417.69592     778.1990     505.5162   1417.69592     778.1990     505.5162
   1417.68066     780.3709     507.0218   1417.68066     780.3709     507.0218
   1417.66541     780.6737     508.9577   1417.66541     780.6737     508.9577
   1417.65015     780.9176     509.1947   1417.65015     780.9176     509.1947
   1417.63489     782.8093     509.1143   1417.63489     782.8093     509.1143
   1417.61963     782.4720     512.1431   1417.61963     782.4720     512.1431
   1417.60437     783.9963     513.3384   1417.60437     783.9963     513.3384
   1417.58911     785.0065     514.3018   1417.58911     785.0065     514.3018
   1417.57385     785.7604     515.6527   1417.57385     785.7604     515.6527
   1417.55859     787.5950     515.9403   1417.55859     787.5950     515.9403
   1417.54333     788.9063     516.8979   1417.54333     788.9063     516.8979
   1417.52808     788.2074     518.1967   1417.52808     788.2074     518.1967
   1417.51282     790.1077     519.3151   1417.51282     790.1077     519.3151
   1417.49756     789.6055     520.5569   1417.49756     789.6055     520.5569
   1417.48230     791.0485     522.0367   1417.48230     791.0485     522.0367
   1417.46704     792.6920     523.4705   1417.46704     792.6920     523.4705
   1417.45178     794.4251     524.6964   1417.45178     794.4251     524.6964
   1417.43652     793.9492     525.8248   1417.43652     793.9492     525.8248
   1417.42126     795.4340     526.6243   1417.42126     795.4340     526.6243
   1417.40601     797.0463     526.9019   1417.40601     797.0463     526.9019
   1417.39075     797.9199     528.9396   1417.39075     797.9199     528.9396
   1417.37549     796.1188     529.4482   1417.37549     796.1188     529.4482
   1417.36023     797.6508     530.3163   1417.36023     797.6508     530.3163
   1417.34497     800.1068     532.1592   1417.34497     800.1068     532.1592
   1417.32971     799.5891     533.1442   1417.32971     799.5891     533.1442
   1417.31445     801.2795     533.7188   1417.31445     801.2795     533.7188
   1417.29919     802.4363     534.6583   1417.29919     802.4363     534.6583
   1417.28394     803.3890     536.0851   1417.28394     803.3890     536.0851
   1417.26868     803.2140     537.5476   1417.26868     803.2140     537.5476
   1417.25342     803.5839     538.6822   1417.25342     803.5839     538.6822
   1417.23816     805.6818     539.6263   1417.23816     805.6818     539.6263
   1417.22290     805.7711     540.6338   1417.22290     805.7711     540.6338
   1417.20764     805.5552     541.3939   1417.20764     805.5552     541.3939
   1417.19238     806.5109     542.8724   1417.19238     806.5109     542.8724
   1417.17712     806.7712     543.9628   1417.17712     806.7712     543.9628
   1417.16187     808.7598     544.7887   1417.16187     808.7598     544.7887
   1417.14661     809.7759     545.2469   1417.14661     809.7759     545.2469
   1417.13135     810.1630     546.1280   1417.13135     810.1630     546.1280
   1417.11609     811.4872     547.6332   1417.11609     811.4872     547.6332
   1417.10083     812.7652     548.8392   1417.10083     812.7652     548.8392
   1417.08557     812.6857     549.4696   1417.08557     812.6857     549.4696
   1417.07031     812.5270     549.8965   1417.07031     812.5270     549.8965
   1417.05505     814.8141     550.3961   1417.05505     814.8141     550.3961
   1417.03979     815.4494     551.2765   1417.03979     815.4494     551.2765
   1417.02454     816.3316     552.5245   1417.02454     816.3316     552.5245
   1417.00928     814.1380     553.8154   1417.00928     814.1380     553.8154
   1416.99402     815.4518     553.8406   1416.99402     815.4518     553.8406
   1416.97876     816.4174     554.8237   1416.97876     816.4174     554.8237
   1416.96350     817.2758     557.1880   1416.96350     817.2758     557.1880
   1416.94824     818.4247     556.8940   1416.94824     818.4247     556.8940
   1416.93298     819.4044     557.4645   1416.93298     819.4044     557.4645
   1416.91772     819.6899     558.0855   1416.91772     819.6899     558.0855
   1416.90247     819.8815     558.7959   1416.90247     819.8815     558.7959
   1416.88721     819.1249     559.3956   1416.88721     819.1249     559.3956
   1416.87195     821.1827     560.8714   1416.87195     821.1827     560.8714
   1416.85669     820.9511     561.5014   1416.85669     820.9511     561.5014
   1416.84143     822.3928     561.5483   1416.84143     822.3928     561.5483
   1416.82617     821.7939     562.2415   1416.82617     821.7939     562.2415
   1416.81091     822.6625     561.3774   1416.81091     822.6625     561.3774
   1416.79565     823.0837     562.9537   1416.79565     823.0837     562.9537
   1416.78040     823.2354     563.3839   1416.78040     823.2354     563.3839
   1416.76514     824.3602     564.6353   1416.76514     824.3602     564.6353
   1416.74988     824.2719     563.6093   1416.74988     824.2719     563.6093
   1416.73462     823.4980     564.0340   1416.73462     823.4980     564.0340
   1416.71936     824.7659     565.1021   1416.71936     824.7659     565.1021
   1416.70410     825.9903     565.9101   1416.70410     825.9903     565.9101
   1416.68884     825.7395     565.9144   1416.68884     825.7395     565.9144
   1416.67358     827.1459     565.4578   1416.67358     827.1459     565.4578
   1416.65833     827.3755     565.7291   1416.65833     827.3755     565.7291
   1416.64307     825.4244     566.7563   1416.64307     825.4244     566.7563
   1416.62781     826.1441     566.7046   1416.62781     826.1441     566.7046
   1416.61255     826.8620     567.0676   1416.61255     826.8620     567.0676
   1416.59729     827.8438     567.2436   1416.59729     827.8438     567.2436
   1416.58203     827.7251     567.0660   1416.58203     827.7251     567.0660
   1416.56677     826.4449     568.5333   1416.56677     826.4449     568.5333
   1416.55151     828.4457     567.3599   1416.55151     828.4457     567.3599
   1416.53625     827.6610     567.2136   1416.53625     827.6610     567.2136
   1416.52100     827.0219     567.6412   1416.52100     827.0219     567.6412
   1416.50574     828.0352     567.1175   1416.50574     828.0352     567.1175
   1416.49048     827.8386     568.4067   1416.49048     827.8386     568.4067
   1416.47522     827.2239     567.9380   1416.47522     827.2239     567.9380
   1416.45996     828.6509     567.3197   1416.45996     828.6509     567.3197
   1416.44470     828.6873     568.3343   1416.44470     828.6873     568.3343
   1416.42944     827.6409     568.1046   1416.42944     827.6409     568.1046
   1416.41418     828.3182     567.4765   1416.41418     828.3182     567.4765
   1416.39893     827.4576     567.4836   1416.39893     827.4576     567.4836
   1416.38367     827.4011     566.3864   1416.38367     827.4011     566.3864
   1416.36841     827.1497     566.4113   1416.36841     827.1497     566.4113
   1416.35315     828.4356     566.8271   1416.35315     828.4356     566.8271
   1416.33789     828.4290     566.6999   1416.33789     828.4290     566.6999
   1416.32263     828.5291     565.9752   1416.32263     828.5291     565.9752
   1416.30737     827.0994     565.2543   1416.30737     827.0994     565.2543
   1416.29211     827.3708     565.4048   1416.29211     827.3708     565.4048
   1416.27686     827.2294     564.7943   1416.27686     827.2294     564.7943
   1416.26160     827.7189     565.9221   1416.26160     827.7189     565.9221
   1416.24634     826.1657     563.6117   1416.24634     826.1657     563.6117
   1416.23108     827.4822     564.1790   1416.23108     827.4822     564.1790
   1416.21582     828.5128     563.0551   1416.21582     828.5128     563.0551
   1416.20056     824.8413     562.6064   1416.20056     824.8413     562.6064
   1416.18530     825.5921     563.3613   1416.18530     825.5921     563.3613
   1416.17004     826.4795     561.6621   1416.17004     826.4795     561.6621
   1416.15479     825.4385     561.6739   1416.15479     825.4385     561.6739
   1416.13953     825.5287     561.4323   1416.13953     825.5287     561.4323
   1416.12427     824.8857     559.9639   1416.12427     824.8857     559.9639
   1416.10901     825.1274     560.2599   1416.10901     825.1274     560.2599
   1416.09375     823.2263     559.3281   1416.09375     823.2263     559.3281
   1416.07849     824.1213     559.3583   1416.07849     824.1213     559.3583
   1416.06323     824.7380     558.1042   1416.06323     824.7380     558.1042
   1416.04797     822.9597     557.2648   1416.04797     822.9597     557.2648
   1416.03271     823.2916     557.3249   1416.03271     823.2916     557.3249
   1416.01746     821.1276     555.5366   1416.01746     821.1276     555.5366
   1416.00220     822.9513     554.3558   1416.00220     822.9513     554.3558
   1415.98694     822.3651     553.9370   1415.98694     822.3651     553.9370
   1415.97168     822.5084     554.3318   1415.97168     822.5084     554.3318
   1415.95642     821.6309     553.9515   1415.95642     821.6309     553.9515
   1415.94116     820.9738     553.3682   1415.94116     820.9738     553.3682
   1415.92590     819.5358     552.3176   1415.92590     819.5358     552.3176
   1415.91064     819.3937     551.3339   1415.91064     819.3937     551.3339
   1415.89539     817.2896     551.1556   1415.89539     817.2896     551.1556
   1415.88013     818.6616     549.8600   1415.88013     818.6616     549.8600
   1415.86487     817.1725     549.2597   1415.86487     817.1725     549.2597
   1415.84961     818.1324     548.8270   1415.84961     818.1324     548.8270
   1415.83435     816.6904     547.2931   1415.83435     816.6904     547.2931
   1415.81909     815.3428     547.0970   1415.81909     815.3428     547.0970
   1415.80383     815.0934     547.0036   1415.80383     815.0934     547.0036
   1415.78857     814.6938     546.8395   1415.78857     814.6938     546.8395
   1415.77332     814.5419     544.8666   1415.77332     814.5419     544.8666
   1415.75806     814.4745     544.3136   1415.75806     814.4745     544.3136
   1415.74280     811.7548     542.7777   1415.74280     811.7548     542.7777
   1415.72754     812.6122     542.5090   1415.72754     812.6122     542.5090
   1415.71228     812.2753     542.0163   1415.71228     812.2753     542.0163
   1415.69702     811.6779     540.6104   1415.69702     811.6779     540.6104
   1415.68176     808.4473     540.0229   1415.68176     808.4473     540.0229
   1415.66650     808.6137     538.6467   1415.66650     808.6137     538.6467
   1415.65125     807.9658     538.4501   1415.65125     807.9658     538.4501
   1415.63599     806.6907     537.7457   1415.63599     806.6907     537.7457
   1415.62073     805.3946     536.5735   1415.62073     805.3946     536.5735
   1415.60547     806.5099     535.7481   1415.60547     806.5099     535.7481
   1415.59021     803.7603     534.2572   1415.59021     803.7603     534.2572
   1415.57495     804.5349     533.6732   1415.57495     804.5349     533.6732
   1415.55969     804.2794     533.3373   1415.55969     804.2794     533.3373
   1415.54443     800.9751     532.4048   1415.54443     800.9751     532.4048
   1415.52917     802.2759     532.0406   1415.52917     802.2759     532.0406
   1415.51392     799.3094     529.7666   1415.51392     799.3094     529.7666
   1415.49866     799.9471     530.2331   1415.49866     799.9471     530.2331
   1415.48340     798.9587     527.7426   1415.48340     798.9587     527.7426
   1415.46814     798.2899     527.1038   1415.46814     798.2899     527.1038
   1415.45288     798.9562     526.4971   1415.45288     798.9562     526.4971
   1415.43762     796.3442     525.3383   1415.43762     796.3442     525.3383
   1415.42236     795.0266     524.0076   1415.42236     795.0266     524.0076
   1415.40710     794.7485     523.2094   1415.40710     794.7485     523.2094
   1415.39185     793.9042     522.6273   1415.39185     793.9042     522.6273
   1415.37659     791.5269     521.4914   1415.37659     791.5269     521.4914
   1415.36133     791.9570     520.5927   1415.36133     791.9570     520.5927
   1415.34607     791.1090     519.2888   1415.34607     791.1090     519.2888
   1415.33081     789.0773     518.9975   1415.33081     789.0773     518.9975
   1415.31555     786.6423     518.3035   1415.31555     786.6423     518.3035
   1415.30029     786.3615     515.9185   1415.30029     786.3615     515.9185
   1415.28503     786.1955     514.8805   1415.28503     786.1955     514.8805
   1415.26978     784.9431     514.7808   1415.26978     784.9431     514.7808
   1415.25452     783.3148     513.7881   1415.25452     783.3148     513.7881
   1415.23926     781.5944     512.2308   1415.23926     781.5944     512.2308
   1415.22400     779.9821     511.5869   1415.22400     779.9821     511.5869
   1415.20874     779.4124     509.6869   1415.20874     779.4124     509.6869
   1415.19348     777.7013     509.5514   1415.19348     777.7013     509.5514
   1415.17822     776.7050     508.2711   1415.17822     776.7050     508.2711
   1415.16296     776.7193     507.6811   1415.16296     776.7193     507.6811
   1415.14771     773.7101     506.3396   1415.14771     773.7101     506.3396
   1415.13245     771.9457     504.7790   1415.13245     771.9457     504.7790
   1415.11719     771.5576     503.6277   1415.11719     771.5576     503.6277
   1415.10193     770.0243     503.1084   1415.10193     770.0243     503.1084
   1415.08667     767.6188     501.1431   1415.08667     767.6188     501.1431
   1415.07141     767.1674     500.7413   1415.07141     767.1674     500.7413
   1415.05615     763.8195     499.0432   1415.05615     763.8195     499.0432
   1415.04089     763.5758     497.5060   1415.04089     763.5758     497.5060
   1415.02563     762.5275     497.3986   1415.02563     762.5275     497.3986
   1415.01038     761.0400     495.8454   1415.01038     761.0400     495.8454
   1414.99512     759.7237     494.7754   1414.99512     759.7237     494.7754
   1414.97986     757.5793     493.7450   1414.97986     757.5793     493.7450
   1414.96460     754.8947     491.8535   1414.96460     754.8947     491.8535
   1414.94934     753.8563     490.7012   1414.94934     753.8563     490.7012
   1414.93408     752.1086     489.3651   1414.93408     752.1086     489.3651
   1414.91882     751.4700     488.5629   1414.91882     751.4700     488.5629
   1414.90356     749.5173     487.6212   1414.90356     749.5173     487.6212
   1414.88831     748.6231     486.4248   1414.88831     748.6231     486.4248
   1414.87305     745.7981     484.4016   1414.87305     745.7981     484.4016
   1414.85779     743.5736     483.8914   1414.85779     743.5736     483.8914
   1414.84253     742.9233     482.0171   1414.84253     742.9233     482.0171
   1414.82727     739.5892     480.2167   1414.82727     739.5892     480.2167
   1414.81201     738.0321     478.9977   1414.81201     738.0321     478.9977
   1414.79675     736.4876     478.0270   1414.79675     736.4876     478.0270
   1414.78149     733.9433     477.0573   1414.78149     733.9433     477.0573
   1414.76624     732.9888     475.9551   1414.76624     732.9888     475.9551
   1414.75098     730.8109     474.1616   1414.75098     730.8109     474.1616
   1414.73572     729.9473     472.7753   1414.73572     729.9473     472.7753
   1414.72046     727.6367     471.1964   1414.72046     727.6367     471.1964
   1414.70520     726.2130     469.8419   1414.70520     726.2130     469.8419
   1414.68994     722.7509     468.9155   1414.68994     722.7509     468.9155
   1414.67468     720.5195     467.0357   1414.67468     720.5195     467.0357
   1414.65942     719.4891     465.9075   1414.65942     719.4891     465.9075
   1414.64417     716.4937     464.2609   1414.64417     716.4937     464.2609
   1414.62891     713.3115     462.8531   1414.62891     713.3115     462.8531
   1414.61365     712.4368     461.3678   1414.61365     712.4368     461.3678
   1414.59839     708.3469     460.2427   1414.59839     708.3469     460.2427
   1414.58313     707.9678     458.3472   1414.58313     707.9678     458.3472
   1414.56787     706.5023     457.5848   1414.56787     706.5023     457.5848
   1414.55261     704.6190     455.5220   1414.55261     704.6190     455.5220
   1414.53735     701.5314     453.8669   1414.53735     701.5314     453.8669
   1414.52209     698.8435     451.6695   1414.52209     698.8435     451.6695
   1414.50684     696.4048     451.2538   1414.50684     696.4048     451.2538
   1414.49158     693.6096     449.6064   1414.49158     693.6096     449.6064
   1414.47632     691.8155     447.7921   1414.47632     691.8155     447.7921
   1414.46106     690.2081     446.5425   1414.46106     690.2081     446.5425
   1414.44580     686.1799     444.4901   1414.44580     686.1799     444.4901
   1414.43054     684.7143     443.5348   1414.43054     684.7143     443.5348
   1414.41528     681.8597     442.1825   1414.41528     681.8597     442.1825
   1414.40002     678.9382     439.9961   1414.40002     678.9382     439.9961
   1414.38477     677.5336     438.7893   1414.38477     677.5336     438.7893
   1414.36951     675.1205     437.5335   1414.36951     675.1205     437.5335
   1414.35425     672.4787     435.6727   1414.35425     672.4787     435.6727
   1414.33899     669.1364     433.5376   1414.33899     669.1364     433.5376
   1414.32373     667.8236     431.6765   1414.32373     667.8236     431.6765
   1414.30847     664.2441     430.4091   1414.30847     664.2441     430.4091
   1414.29321     661.0895     428.5298   1414.29321     661.0895     428.5298
   1414.27795     659.6636     427.3134   1414.27795     659.6636     427.3134
   1414.26270     656.2151     425.9833   1414.26270     656.2151     425.9833
   1414.24744     653.9630     423.3322   1414.24744     653.9630     423.3322
   1414.23218     650.8987     422.8656   1414.23218     650.8987     422.8656
   1414.21692     648.4370     420.7473   1414.21692     648.4370     420.7473
   1414.20166     645.2782     418.8755   1414.20166     645.2782     418.8755
   1414.18640     643.3280     417.8760   1414.18640     643.3280     417.8760
   1414.17114     640.5672     415.6835   1414.17114     640.5672     415.6835
   1414.15588     638.3088     414.9463   1414.15588     638.3088     414.9463
   1414.14062     634.7299     413.3928   1414.14062     634.7299     413.3928
   1414.12537     632.1732     410.6613   1414.12537     632.1732     410.6613
   1414.11011     629.4431     409.2526   1414.11011     629.4431     409.2526
   1414.09485     626.9392     407.0034   1414.09485     626.9392     407.0034
   1414.07959     624.6169     405.4453   1414.07959     624.6169     405.4453
   1414.06433     621.7350     404.2994   1414.06433     621.7350     404.2994
   1414.04907     617.4441     401.7159   1414.04907     617.4441     401.7159
   1414.03381     615.0939     400.2559   1414.03381     615.0939     400.2559
   1414.01855     612.2654     398.9039   1414.01855     612.2654     398.9039
   1414.00330     636.4012     405.7291   1414.00330     636.4012     405.7291
   1413.98804     608.5406     395.4339   1413.98804     608.5406     395.4339
   1413.97278     603.7242     393.3591   1413.97278     603.7242     393.3591
   1413.95752     599.8544     391.8161   1413.95752     599.8544     391.8161
   1413.94226     598.5967     389.4845   1413.94226     598.5967     389.4845
   1413.92700     593.5840     387.9091   1413.92700     593.5840     387.9091
   1413.91174     591.1226     386.8856   1413.91174     591.1226     386.8856
   1413.89648     588.5740     384.4124   1413.89648     588.5740     384.4124
   1413.88123     586.4075     383.5523   1413.88123     586.4075     383.5523
   1413.86597     582.3058     381.2007   1413.86597     582.3058     381.2007
   1413.85071     579.5085     378.9005   1413.85071     579.5085     378.9005
   1413.83545     576.2473     377.3331   1413.83545     576.2473     377.3331
   1413.82019     573.6285     376.3146   1413.82019     573.6285     376.3146
   1413.80493     569.8162     373.6227   1413.80493     569.8162     373.6227
   1413.78967     567.9826     372.3818   1413.78967     567.9826     372.3818
   1413.77441     563.9133     370.3675   1413.77441     563.9133     370.3675
   1413.75916     561.3052     368.6685   1413.75916     561.3052     368.6685
   1413.74390     558.2257     367.3642   1413.74390     558.2257     367.3642
   1413.72864     555.9305     365.3332   1413.72864     555.9305     365.3332
   1413.71338     552.2552     363.5526   1413.71338     552.2552     363.5526
   1413.69812     549.1421     362.1388   1413.69812     549.1421     362.1388
   1413.68286     546.3719     359.8184   1413.68286     546.3719     359.8184
   1413.66760     543.3130     358.7140   1413.66760     543.3130     358.7140
   1413.65234     540.4832     356.5794   1413.65234     540.4832     356.5794
   1413.63708     536.8051     355.3648   1413.63708     536.8051     355.3648
   1413.62183     534.6894     353.2518   1413.62183     534.6894     353.2518
   1413.60657     530.5831     351.6300   1413.60657     530.5831     351.6300
   1413.59131     528.1252     349.5308   1413.59131     528.1252     349.5308
   1413.57605     525.4173     348.6468   1413.57605     525.4173     348.6468
   1413.56079     522.0298     346.0527   1413.56079     522.0298     346.0527
   1413.54553     519.3767     344.4404   1413.54553     519.3767     344.4404
   1413.53027     517.0278     343.0593   1413.53027     517.0278     343.0593
   1413.51501     513.1740     340.6370   1413.51501     513.1740     340.6370
   1413.49976     510.1175     339.2603   1413.49976     510.1175     339.2603
   1413.48450     506.4459     338.1655   1413.48450     506.4459     338.1655
   1413.46924     504.9255     335.9348   1413.46924     504.9255     335.9348
   1413.45398     501.2905     334.4464   1413.45398     501.2905     334.4464
   1413.43872     497.9255     332.5625   1413.43872     497.9255     332.5625
   1413.42346     495.5809     330.9911   1413.42346     495.5809     330.9911
   1413.40820     492.6125     329.4466   1413.40820     492.6125     329.4466
   1413.39294     490.2900     328.0023   1413.39294     490.2900     328.0023
   1413.37769     486.8494     326.4460   1413.37769     486.8494     326.4460
   1413.36243     485.5083     324.7507   1413.36243     485.5083     324.7507
   1413.34717     481.5065     323.1496   1413.34717     481.5065     323.1496
   1413.33191     479.3101     321.4380   1413.33191     479.3101     321.4380
   1413.31665     476.6507     320.3927   1413.31665     476.6507     320.3927
   1413.30139     473.4233     318.5520   1413.30139     473.4233     318.5520
   1413.28613     470.2149     317.4914   1413.28613     470.2149     317.4914
   1413.27087     467.4218     315.5261   1413.27087     467.4218     315.5261
   1413.25562     465.1455     314.6259   1413.25562     465.1455     314.6259
   1413.24036     462.3570     312.1817   1413.24036     462.3570     312.1817
   1413.22510     459.3337     311.1157   1413.22510     459.3337     311.1157
   1413.20984     457.3973     309.3109   1413.20984     457.3973     309.3109
   1413.19458     454.5983     308.4048   1413.19458     454.5983     308.4048
   1413.17932     452.7024     307.0066   1413.17932     452.7024     307.0066
   1413.16406     449.1616     305.8040   1413.16406     449.1616     305.8040
   1413.14880     446.5492     304.3094   1413.14880     446.5492     304.3094
   1413.13354     444.3904     303.1229   1413.13354     444.3904     303.1229
   1413.11829     442.0929     302.1926   1413.11829     442.0929     302.1926
   1413.10303     439.6616     300.8733   1413.10303     439.6616     300.8733
   1413.08777     436.8063     298.9384   1413.08777     436.8063     298.9384
   1413.07251     434.6473     298.0443   1413.07251     434.6473     298.0443
   1413.05725     432.0278     296.7817   1413.05725     432.0278     296.7817
   1413.04199     430.0156     295.3708   1413.04199     430.0156     295.3708
   1413.02673     427.9128     294.1176   1413.02673     427.9128     294.1176
   1413.01147     426.3278     293.3363   1413.01147     426.3278     293.3363
   1412.99622     424.1483     292.1216   1412.99622     424.1483     292.1216
   1412.98096     421.5066     290.6818   1412.98096     421.5066     290.6818
   1412.96570     419.5480     289.3623   1412.96570     419.5480     289.3623
   1412.95044     416.7454     288.5598   1412.95044     416.7454     288.5598
   1412.93518     415.9305     287.5938   1412.93518     415.9305     287.5938
   1412.91992     413.6151     286.8009   1412.91992     413.6151     286.8009
   1412.90466     411.7503     285.9784   1412.90466     411.7503     285.9784
   1412.88940     409.2127     285.2267   1412.88940     409.2127     285.2267
   1412.87415     407.8024     283.6621   1412.87415     407.8024     283.6621
   1412.85889     405.9219     282.9543   1412.85889     405.9219     282.9543
   1412.84363     404.1801     281.8413   1412.84363     404.1801     281.8413
   1412.82837     402.9991     281.4711   1412.82837     402.9991     281.4711
   1412.81311     400.9167     280.8765   1412.81311     400.9167     280.8765
   1412.79785     399.4325     279.8900   1412.79785     399.4325     279.8900
   1412.78259     397.2632     279.3432   1412.78259     397.2632     279.3432
   1412.76733     395.8429     278.3589   1412.76733     395.8429     278.3589
   1412.75208     395.4215     278.2581   1412.75208     395.4215     278.2581
   1412.73682     393.1085     277.4825   1412.73682     393.1085     277.4825
   1412.72156     391.7318     276.7712   1412.72156     391.7318     276.7712
   1412.70630     390.6244     276.2979   1412.70630     390.6244     276.2979
   1412.69104     389.1085     276.0833   1412.69104     389.1085     276.0833
   1412.67578     388.4279     275.5670   1412.67578     388.4279     275.5670
   1412.66052     386.6532     275.0780   1412.66052     386.6532     275.0780
   1412.64526     385.9252     274.1713   1412.64526     385.9252     274.1713
   1412.63000     384.6108     274.0565   1412.63000     384.6108     274.0565
   1412.61475     385.0778     273.8223   1412.61475     385.0778     273.8223
   1412.59949     382.1715     273.6106   1412.59949     382.1715     273.6106
   1412.58423     381.5095     273.1385   1412.58423     381.5095     273.1385
   1412.56897     380.4985     272.7577   1412.56897     380.4985     272.7577
   1412.55371     380.4484     272.6181   1412.55371     380.4484     272.6181
   1412.53845     379.2797     272.8891   1412.53845     379.2797     272.8891
   1412.52319     379.2540     272.6646   1412.52319     379.2540     272.6646
   1412.50793     378.4046     272.3489   1412.50793     378.4046     272.3489
   1412.49268     377.7889     272.5901   1412.49268     377.7889     272.5901
   1412.47742     377.1244     272.5534   1412.47742     377.1244     272.5534
   1412.46216     376.1644     272.7880   1412.46216     376.1644     272.7880
   1412.44690     375.7132     273.0170   1412.44690     375.7132     273.0170
   1412.43164     375.5332     272.8913   1412.43164     375.5332     272.8913
   1412.41638     375.7111     273.2523   1412.41638     375.7111     273.2523
   1412.40112     375.5541     273.3935   1412.40112     375.5541     273.3935
   1412.38586     375.1049     273.8223   1412.38586     375.1049     273.8223
   1412.37061     375.3235     273.9227   1412.37061     375.3235     273.9227
   1412.35535     375.1515     274.2710   1412.35535     375.1515     274.2710
   1412.34009     375.2027     274.3648   1412.34009     375.2027     274.3648
   1412.32483     374.8111     275.5124   1412.32483     374.8111     275.5124
   1412.30957     375.2636     275.3962   1412.30957     375.2636     275.3962
   1412.29431     374.8803     276.4544   1412.29431     374.8803     276.4544
   1412.27905     376.1071     276.7100   1412.27905     376.1071     276.7100
   1412.26379     375.7104     276.7054   1412.26379     375.7104     276.7054
   1412.24854     375.9868     277.9270   1412.24854     375.9868     277.9270
   1412.23328     375.7017     278.3567   1412.23328     375.7017     278.3567
   1412.21802     377.3498     279.4496   1412.21802     377.3498     279.4496
   1412.20276     377.5448     279.4836   1412.20276     377.5448     279.4836