#     FILENAME=!Skynet_57528_lach-hhg-102_20351_20909.cyb.fits
#     BASENAME=Skynet_57528_lach-hhg-102_20351_20909
#     SRC_NAME=lach-hhg-102
#     OBSERVER=hhgmadison16_9500
#     DATE_OBS=2016-05-20T15:27:31.250
#        OBSID=20351
#      SCANNUM=20909
#          MJD=57528.6452
#          UTC=55740
#     SCANTYPE=track
#     DATAMODE=HIRES
#     TUNEFREQ=1420.0000
# Actual_FREQ1=1420.0000
# Actual_FREQ2=1420.0000
#    LO1Tuning=6870.000
#     RFFILTER=1355_1435
#        OBSBW=-15.6250
#        NCHAN=1024 
#        FOCUS=37.0709
#           RA=22:11:33.79
#          DEC=56:13:39.58
#      RA(hrs)=22.190600
#     DEC(deg)=56.227800
#    AZIM(deg)=314.376
#    ELEV(deg)=48.406
#     IFattens=10.00, 9.00
#      WARNING=None
#    TCAL_XL1=7.9635
#    TCAL_YR1=9.1340
#    TCAL_XL2=7.9635
#    TCAL_YR2=9.1340
#     TRX_XL1=11.7060
#     TRX_YR1=11.7060
#     TRX_XL2=11.7060
#     TRX_YR2=11.7060
#        TAVE=1.0000
#Freq1(MHz)          XL1          YR1  Freq2(MHz)          XL2          YR2 

   1427.81250     372.6413     283.5817   1427.81250     372.6413     283.5817
   1427.79724     372.4351     284.9508   1427.79724     372.4351     284.9508
   1427.78198     373.7486     285.3884   1427.78198     373.7486     285.3884
   1427.76672     374.4517     286.7129   1427.76672     374.4517     286.7129
   1427.75146     375.5829     287.2007   1427.75146     375.5829     287.2007
   1427.73621     376.0253     288.0420   1427.73621     376.0253     288.0420
   1427.72095     377.1197     289.4943   1427.72095     377.1197     289.4943
   1427.70569     378.0895     290.2914   1427.70569     378.0895     290.2914
   1427.69043     379.3916     290.4848   1427.69043     379.3916     290.4848
   1427.67517     379.8564     291.8223   1427.67517     379.8564     291.8223
   1427.65991     382.0381     292.8623   1427.65991     382.0381     292.8623
   1427.64465     382.7156     293.7705   1427.64465     382.7156     293.7705
   1427.62939     383.6737     294.9709   1427.62939     383.6737     294.9709
   1427.61414     385.9254     296.4396   1427.61414     385.9254     296.4396
   1427.59888     386.2587     297.9634   1427.59888     386.2587     297.9634
   1427.58362     387.9488     298.6566   1427.58362     387.9488     298.6566
   1427.56836     390.2914     299.8813   1427.56836     390.2914     299.8813
   1427.55310     392.0355     301.2353   1427.55310     392.0355     301.2353
   1427.53784     392.6652     302.8606   1427.53784     392.6652     302.8606
   1427.52258     394.7827     304.4019   1427.52258     394.7827     304.4019
   1427.50732     396.3423     305.4739   1427.50732     396.3423     305.4739
   1427.49207     398.5536     307.0081   1427.49207     398.5536     307.0081
   1427.47681     399.3390     308.0429   1427.47681     399.3390     308.0429
   1427.46155     401.7598     309.4416   1427.46155     401.7598     309.4416
   1427.44629     404.3678     311.3415   1427.44629     404.3678     311.3415
   1427.43103     405.5312     313.3980   1427.43103     405.5312     313.3980
   1427.41577     407.8481     313.8726   1427.41577     407.8481     313.8726
   1427.40051     409.3976     316.1100   1427.40051     409.3976     316.1100
   1427.38525     411.4575     317.7964   1427.38525     411.4575     317.7964
   1427.37000     413.7474     319.6635   1427.37000     413.7474     319.6635
   1427.35474     415.6730     320.7604   1427.35474     415.6730     320.7604
   1427.33948     418.5355     323.2385   1427.33948     418.5355     323.2385
   1427.32422     420.3714     325.1390   1427.32422     420.3714     325.1390
   1427.30896     422.5493     326.0341   1427.30896     422.5493     326.0341
   1427.29370     425.0579     328.1864   1427.29370     425.0579     328.1864
   1427.27844     426.9812     329.9356   1427.27844     426.9812     329.9356
   1427.26318     429.0001     331.8416   1427.26318     429.0001     331.8416
   1427.24792     432.7333     333.7703   1427.24792     432.7333     333.7703
   1427.23267     434.9425     335.4533   1427.23267     434.9425     335.4533
   1427.21741     436.9065     338.0193   1427.21741     436.9065     338.0193
   1427.20215     440.3103     339.4801   1427.20215     440.3103     339.4801
   1427.18689     442.4394     341.7955   1427.18689     442.4394     341.7955
   1427.17163     445.0773     343.7493   1427.17163     445.0773     343.7493
   1427.15637     447.9591     345.9149   1427.15637     447.9591     345.9149
   1427.14111     450.3630     347.5995   1427.14111     450.3630     347.5995
   1427.12585     452.8131     349.3210   1427.12585     452.8131     349.3210
   1427.11060     455.1343     351.4983   1427.11060     455.1343     351.4983
   1427.09534     458.8162     353.1446   1427.09534     458.8162     353.1446
   1427.08008     461.2954     355.9635   1427.08008     461.2954     355.9635
   1427.06482     463.4530     357.6058   1427.06482     463.4530     357.6058
   1427.04956     465.7681     359.5242   1427.04956     465.7681     359.5242
   1427.03430     469.2042     361.6942   1427.03430     469.2042     361.6942
   1427.01904     472.2679     364.1917   1427.01904     472.2679     364.1917
   1427.00378     475.4573     365.7552   1427.00378     475.4573     365.7552
   1426.98853     477.5255     368.2483   1426.98853     477.5255     368.2483
   1426.97327     481.0787     370.2812   1426.97327     481.0787     370.2812
   1426.95801     483.3698     371.6437   1426.95801     483.3698     371.6437
   1426.94275     486.4083     375.2387   1426.94275     486.4083     375.2387
   1426.92749     489.7556     376.3135   1426.92749     489.7556     376.3135
   1426.91223     492.3416     378.2871   1426.91223     492.3416     378.2871
   1426.89697     495.6029     381.3493   1426.89697     495.6029     381.3493
   1426.88171     498.9543     382.6860   1426.88171     498.9543     382.6860
   1426.86646     501.6745     385.5247   1426.86646     501.6745     385.5247
   1426.85120     503.8121     387.3831   1426.85120     503.8121     387.3831
   1426.83594     508.0395     390.1713   1426.83594     508.0395     390.1713
   1426.82068     511.0442     392.5086   1426.82068     511.0442     392.5086
   1426.80542     513.5765     394.3406   1426.80542     513.5765     394.3406
   1426.79016     516.6998     396.4808   1426.79016     516.6998     396.4808
   1426.77490     519.6019     399.5094   1426.77490     519.6019     399.5094
   1426.75964     522.0145     401.6487   1426.75964     522.0145     401.6487
   1426.74438     525.6333     403.5221   1426.74438     525.6333     403.5221
   1426.72913     529.0287     405.0881   1426.72913     529.0287     405.0881
   1426.71387     532.2376     407.5774   1426.71387     532.2376     407.5774
   1426.69861     535.3452     409.8239   1426.69861     535.3452     409.8239
   1426.68335     538.0221     411.7119   1426.68335     538.0221     411.7119
   1426.66809     541.7379     414.3482   1426.66809     541.7379     414.3482
   1426.65283     544.4069     416.8969   1426.65283     544.4069     416.8969
   1426.63757     547.7761     418.2166   1426.63757     547.7761     418.2166
   1426.62231     550.5942     421.5782   1426.62231     550.5942     421.5782
   1426.60706     553.6175     423.0025   1426.60706     553.6175     423.0025
   1426.59180     556.5261     425.0666   1426.59180     556.5261     425.0666
   1426.57654     559.3019     427.5847   1426.57654     559.3019     427.5847
   1426.56128     562.7656     430.5172   1426.56128     562.7656     430.5172
   1426.54602     565.3395     431.9471   1426.54602     565.3395     431.9471
   1426.53076     568.8079     434.3812   1426.53076     568.8079     434.3812
   1426.51550     571.3438     436.7512   1426.51550     571.3438     436.7512
   1426.50024     574.7922     438.7521   1426.50024     574.7922     438.7521
   1426.48499     577.0816     440.2418   1426.48499     577.0816     440.2418
   1426.46973     580.9344     442.7511   1426.46973     580.9344     442.7511
   1426.45447     583.9032     444.8032   1426.45447     583.9032     444.8032
   1426.43921     587.6766     447.5073   1426.43921     587.6766     447.5073
   1426.42395     589.8691     449.3775   1426.42395     589.8691     449.3775
   1426.40869     592.2092     451.7790   1426.40869     592.2092     451.7790
   1426.39343     595.0973     452.7575   1426.39343     595.0973     452.7575
   1426.37817     598.2549     456.3330   1426.37817     598.2549     456.3330
   1426.36292     601.5452     457.5307   1426.36292     601.5452     457.5307
   1426.34766     604.9576     459.8810   1426.34766     604.9576     459.8810
   1426.33240     607.2520     462.5688   1426.33240     607.2520     462.5688
   1426.31714     609.7562     463.5950   1426.31714     609.7562     463.5950
   1426.30188     612.3220     465.8606   1426.30188     612.3220     465.8606
   1426.28662     614.8856     468.2005   1426.28662     614.8856     468.2005
   1426.27136     618.4484     470.1659   1426.27136     618.4484     470.1659
   1426.25610     621.5939     472.3776   1426.25610     621.5939     472.3776
   1426.24084     622.8729     474.3580   1426.24084     622.8729     474.3580
   1426.22559     625.6857     475.4840   1426.22559     625.6857     475.4840
   1426.21033     628.3567     477.7215   1426.21033     628.3567     477.7215
   1426.19507     630.6156     480.1862   1426.19507     630.6156     480.1862
   1426.17981     633.3772     482.0001   1426.17981     633.3772     482.0001
   1426.16455     636.9379     483.7693   1426.16455     636.9379     483.7693
   1426.14929     640.1199     485.6739   1426.14929     640.1199     485.6739
   1426.13403     641.4897     487.3227   1426.13403     641.4897     487.3227
   1426.11877     642.9365     489.4731   1426.11877     642.9365     489.4731
   1426.10352     646.4428     491.0579   1426.10352     646.4428     491.0579
   1426.08826     649.4063     492.9612   1426.08826     649.4063     492.9612
   1426.07300     651.0854     495.7621   1426.07300     651.0854     495.7621
   1426.05774     654.2576     496.6772   1426.05774     654.2576     496.6772
   1426.04248     656.4969     498.7479   1426.04248     656.4969     498.7479
   1426.02722     659.1385     500.0263   1426.02722     659.1385     500.0263
   1426.01196     661.6608     502.4417   1426.01196     661.6608     502.4417
   1425.99670     663.4708     504.3671   1425.99670     663.4708     504.3671
   1425.98145     665.0229     506.2392   1425.98145     665.0229     506.2392
   1425.96619     668.0410     507.8673   1425.96619     668.0410     507.8673
   1425.95093     670.3459     509.5858   1425.95093     670.3459     509.5858
   1425.93567     673.3370     510.4736   1425.93567     673.3370     510.4736
   1425.92041     673.8801     511.5302   1425.92041     673.8801     511.5302
   1425.90515     676.0092     513.7190   1425.90515     676.0092     513.7190
   1425.88989     678.3748     515.7654   1425.88989     678.3748     515.7654
   1425.87463     681.9990     517.2722   1425.87463     681.9990     517.2722
   1425.85938     683.6934     518.9932   1425.85938     683.6934     518.9932
   1425.84412     683.8207     520.4213   1425.84412     683.8207     520.4213
   1425.82886     686.6243     522.9988   1425.82886     686.6243     522.9988
   1425.81360     689.3721     524.3566   1425.81360     689.3721     524.3566
   1425.79834     689.5029     525.0178   1425.79834     689.5029     525.0178
   1425.78308     691.8162     527.0157   1425.78308     691.8162     527.0157
   1425.76782     693.0325     529.1803   1425.76782     693.0325     529.1803
   1425.75256     695.8030     531.0403   1425.75256     695.8030     531.0403
   1425.73730     697.3154     531.0654   1425.73730     697.3154     531.0654
   1425.72205     699.7238     533.5369   1425.72205     699.7238     533.5369
   1425.70679     700.5444     534.0637   1425.70679     700.5444     534.0637
   1425.69153     703.2847     535.6398   1425.69153     703.2847     535.6398
   1425.67627     703.1654     538.1296   1425.67627     703.1654     538.1296
   1425.66101     704.0603     539.0385   1425.66101     704.0603     539.0385
   1425.64575     706.7161     540.6874   1425.64575     706.7161     540.6874
   1425.63049     708.8467     541.7884   1425.63049     708.8467     541.7884
   1425.61523     711.1068     543.0775   1425.61523     711.1068     543.0775
   1425.59998     711.8384     544.1046   1425.59998     711.8384     544.1046
   1425.58472     713.0182     545.8357   1425.58472     713.0182     545.8357
   1425.56946     714.7859     547.8817   1425.56946     714.7859     547.8817
   1425.55420     715.1910     548.5795   1425.55420     715.1910     548.5795
   1425.53894     718.5268     551.0455   1425.53894     718.5268     551.0455
   1425.52368     718.3575     550.4528   1425.52368     718.3575     550.4528
   1425.50842     719.2490     553.1450   1425.50842     719.2490     553.1450
   1425.49316     721.5528     554.5821   1425.49316     721.5528     554.5821
   1425.47791     722.4756     554.9726   1425.47791     722.4756     554.9726
   1425.46265     723.8353     555.8094   1425.46265     723.8353     555.8094
   1425.44739     725.7277     558.5093   1425.44739     725.7277     558.5093
   1425.43213     725.7050     559.2056   1425.43213     725.7050     559.2056
   1425.41687     726.8013     561.0605   1425.41687     726.8013     561.0605
   1425.40161     727.0169     561.5797   1425.40161     727.0169     561.5797
   1425.38635     729.2325     561.3212   1425.38635     729.2325     561.3212
   1425.37109     730.4799     563.2271   1425.37109     730.4799     563.2271
   1425.35583     731.2880     565.0283   1425.35583     731.2880     565.0283
   1425.34058     732.3617     565.6827   1425.34058     732.3617     565.6827
   1425.32532     732.5798     566.7086   1425.32532     732.5798     566.7086
   1425.31006     733.8792     568.6494   1425.31006     733.8792     568.6494
   1425.29480     735.0562     569.2551   1425.29480     735.0562     569.2551
   1425.27954     735.3868     570.8065   1425.27954     735.3868     570.8065
   1425.26428     737.2097     572.0243   1425.26428     737.2097     572.0243
   1425.24902     736.3814     572.6173   1425.24902     736.3814     572.6173
   1425.23376     738.7792     573.5490   1425.23376     738.7792     573.5490
   1425.21851     738.5502     575.3041   1425.21851     738.5502     575.3041
   1425.20325     738.6893     575.1200   1425.20325     738.6893     575.1200
   1425.18799     741.2656     576.3525   1425.18799     741.2656     576.3525
   1425.17273     739.6356     578.0754   1425.17273     739.6356     578.0754
   1425.15747     741.2041     579.0831   1425.15747     741.2041     579.0831
   1425.14221     743.0439     579.5994   1425.14221     743.0439     579.5994
   1425.12695     742.5255     582.0780   1425.12695     742.5255     582.0780
   1425.11169     743.3655     581.0804   1425.11169     743.3655     581.0804
   1425.09644     742.6367     582.5906   1425.09644     742.6367     582.5906
   1425.08118     743.8436     583.4930   1425.08118     743.8436     583.4930
   1425.06592     744.4971     584.1426   1425.06592     744.4971     584.1426
   1425.05066     745.2737     585.3074   1425.05066     745.2737     585.3074
   1425.03540     745.7388     585.8735   1425.03540     745.7388     585.8735
   1425.02014     745.0629     587.1254   1425.02014     745.0629     587.1254
   1425.00488     746.6468     587.7413   1425.00488     746.6468     587.7413
   1424.98962     747.1620     588.4899   1424.98962     747.1620     588.4899
   1424.97437     747.7627     590.6306   1424.97437     747.7627     590.6306
   1424.95911     747.4623     591.4199   1424.95911     747.4623     591.4199
   1424.94385     747.2125     592.5983   1424.94385     747.2125     592.5983
   1424.92859     748.4077     593.0891   1424.92859     748.4077     593.0891
   1424.91333     748.4100     593.0593   1424.91333     748.4100     593.0593
   1424.89807     746.8217     593.9887   1424.89807     746.8217     593.9887
   1424.88281     746.9616     594.8812   1424.88281     746.9616     594.8812
   1424.86755     748.5648     596.4999   1424.86755     748.5648     596.4999
   1424.85229     748.7933     596.7203   1424.85229     748.7933     596.7203
   1424.83704     749.7379     596.7574   1424.83704     749.7379     596.7574
   1424.82178     750.0045     598.1858   1424.82178     750.0045     598.1858
   1424.80652     749.3178     599.9191   1424.80652     749.3178     599.9191
   1424.79126     750.2377     600.2492   1424.79126     750.2377     600.2492
   1424.77600     749.3935     600.8658   1424.77600     749.3935     600.8658
   1424.76074     750.9183     600.4051   1424.76074     750.9183     600.4051
   1424.74548     750.3310     602.0663   1424.74548     750.3310     602.0663
   1424.73022     750.8566     602.7985   1424.73022     750.8566     602.7985
   1424.71497     749.8776     603.8308   1424.71497     749.8776     603.8308
   1424.69971     749.7377     604.1594   1424.69971     749.7377     604.1594
   1424.68445     750.2054     604.8734   1424.68445     750.2054     604.8734
   1424.66919     750.6518     605.7014   1424.66919     750.6518     605.7014
   1424.65393     750.1230     606.9305   1424.65393     750.1230     606.9305
   1424.63867     750.0989     606.8689   1424.63867     750.0989     606.8689
   1424.62341     751.1679     608.7843   1424.62341     751.1679     608.7843
   1424.60815     750.1778     608.9930   1424.60815     750.1778     608.9930
   1424.59290     751.2313     610.6451   1424.59290     751.2313     610.6451
   1424.57764     748.6324     609.9432   1424.57764     748.6324     609.9432
   1424.56238     750.6937     610.7197   1424.56238     750.6937     610.7197
   1424.54712     749.4558     611.0486   1424.54712     749.4558     611.0486
   1424.53186     749.3873     611.9382   1424.53186     749.3873     611.9382
   1424.51660     749.2421     612.5409   1424.51660     749.2421     612.5409
   1424.50134     749.3320     613.3584   1424.50134     749.3320     613.3584
   1424.48608     749.4262     613.8381   1424.48608     749.4262     613.8381
   1424.47083     749.1533     612.9529   1424.47083     749.1533     612.9529
   1424.45557     749.6531     615.4213   1424.45557     749.6531     615.4213
   1424.44031     748.9911     615.0841   1424.44031     748.9911     615.0841
   1424.42505     749.2859     616.2375   1424.42505     749.2859     616.2375
   1424.40979     748.2451     616.0342   1424.40979     748.2451     616.0342
   1424.39453     747.7336     616.5590   1424.39453     747.7336     616.5590
   1424.37927     748.3645     618.1822   1424.37927     748.3645     618.1822
   1424.36401     749.3222     618.3802   1424.36401     749.3222     618.3802
   1424.34875     748.1898     618.7202   1424.34875     748.1898     618.7202
   1424.33350     747.6791     618.5274   1424.33350     747.6791     618.5274
   1424.31824     747.8680     619.8181   1424.31824     747.8680     619.8181
   1424.30298     747.6472     620.4869   1424.30298     747.6472     620.4869
   1424.28772     746.8608     620.6947   1424.28772     746.8608     620.6947
   1424.27246     747.6880     620.7419   1424.27246     747.6880     620.7419
   1424.25720     748.0839     622.0489   1424.25720     748.0839     622.0489
   1424.24194     746.7358     622.5017   1424.24194     746.7358     622.5017
   1424.22668     746.0822     623.6628   1424.22668     746.0822     623.6628
   1424.21143     747.1528     623.3969   1424.21143     747.1528     623.3969
   1424.19617     746.3855     623.1347   1424.19617     746.3855     623.1347
   1424.18091     744.8535     624.9280   1424.18091     744.8535     624.9280
   1424.16565     745.2288     623.7155   1424.16565     745.2288     623.7155
   1424.15039     744.4679     624.4967   1424.15039     744.4679     624.4967
   1424.13513     744.9431     625.8021   1424.13513     744.9431     625.8021
   1424.11987     744.2025     626.7532   1424.11987     744.2025     626.7532
   1424.10461     743.3477     627.3893   1424.10461     743.3477     627.3893
   1424.08936     744.3144     627.3467   1424.08936     744.3144     627.3467
   1424.07410     744.4227     626.7165   1424.07410     744.4227     626.7165
   1424.05884     743.2908     627.6360   1424.05884     743.2908     627.6360
   1424.04358     743.1749     628.6783   1424.04358     743.1749     628.6783
   1424.02832     743.4112     628.4059   1424.02832     743.4112     628.4059
   1424.01306     742.4425     629.0605   1424.01306     742.4425     629.0605
   1423.99780     742.1637     628.7034   1423.99780     742.1637     628.7034
   1423.98254     741.1176     630.0406   1423.98254     741.1176     630.0406
   1423.96729     741.3669     630.8430   1423.96729     741.3669     630.8430
   1423.95203     741.8205     629.9055   1423.95203     741.8205     629.9055
   1423.93677     741.9382     629.9766   1423.93677     741.9382     629.9766
   1423.92151     739.9777     630.5689   1423.92151     739.9777     630.5689
   1423.90625     741.3809     631.6093   1423.90625     741.3809     631.6093
   1423.89099     740.7868     632.4287   1423.89099     740.7868     632.4287
   1423.87573     739.8349     632.5756   1423.87573     739.8349     632.5756
   1423.86047     739.1663     631.5658   1423.86047     739.1663     631.5658
   1423.84521     738.9679     631.6596   1423.84521     738.9679     631.6596
   1423.82996     740.1422     633.2601   1423.82996     740.1422     633.2601
   1423.81470     740.4034     633.4536   1423.81470     740.4034     633.4536
   1423.79944     739.9459     633.0576   1423.79944     739.9459     633.0576
   1423.78418     738.3733     634.2756   1423.78418     738.3733     634.2756
   1423.76892     738.5726     633.3265   1423.76892     738.5726     633.3265
   1423.75366     737.4209     634.1274   1423.75366     737.4209     634.1274
   1423.73840     737.1083     633.9275   1423.73840     737.1083     633.9275
   1423.72314     738.0868     634.6674   1423.72314     738.0868     634.6674
   1423.70789     736.7545     634.1351   1423.70789     736.7545     634.1351
   1423.69263     736.3829     634.9450   1423.69263     736.3829     634.9450
   1423.67737     737.1932     634.6057   1423.67737     737.1932     634.6057
   1423.66211     737.1942     634.6327   1423.66211     737.1942     634.6327
   1423.64685     737.2783     635.6282   1423.64685     737.2783     635.6282
   1423.63159     736.2728     635.3743   1423.63159     736.2728     635.3743
   1423.61633     735.3447     636.2977   1423.61633     735.3447     636.2977
   1423.60107     734.9007     635.9718   1423.60107     734.9007     635.9718
   1423.58582     734.9990     636.4835   1423.58582     734.9990     636.4835
   1423.57056     734.7194     636.3835   1423.57056     734.7194     636.3835
   1423.55530     734.9514     637.3552   1423.55530     734.9514     637.3552
   1423.54004     734.0382     637.3019   1423.54004     734.0382     637.3019
   1423.52478     733.4398     636.8344   1423.52478     733.4398     636.8344
   1423.50952     733.8439     636.3557   1423.50952     733.8439     636.3557
   1423.49426     733.0469     636.8262   1423.49426     733.0469     636.8262
   1423.47900     733.7741     636.6611   1423.47900     733.7741     636.6611
   1423.46375     733.9891     636.5082   1423.46375     733.9891     636.5082
   1423.44849     733.5905     636.8148   1423.44849     733.5905     636.8148
   1423.43323     732.5031     636.9907   1423.43323     732.5031     636.9907
   1423.41797     732.3670     635.4344   1423.41797     732.3670     635.4344
   1423.40271     731.9403     636.1010   1423.40271     731.9403     636.1010
   1423.38745     731.8010     636.6055   1423.38745     731.8010     636.6055
   1423.37219     731.3964     636.7903   1423.37219     731.3964     636.7903
   1423.35693     732.0125     636.7255   1423.35693     732.0125     636.7255
   1423.34167     731.3456     637.3399   1423.34167     731.3456     637.3399
   1423.32642     729.7791     636.7942   1423.32642     729.7791     636.7942
   1423.31116     731.1057     636.7125   1423.31116     731.1057     636.7125
   1423.29590     730.8323     636.4293   1423.29590     730.8323     636.4293
   1423.28064     730.2930     636.3875   1423.28064     730.2930     636.3875
   1423.26538     729.9373     635.9307   1423.26538     729.9373     635.9307
   1423.25012     731.0845     635.3035   1423.25012     731.0845     635.3035
   1423.23486     729.0005     635.6694   1423.23486     729.0005     635.6694
   1423.21960     729.6729     635.0876   1423.21960     729.6729     635.0876
   1423.20435     729.3900     635.9059   1423.20435     729.3900     635.9059
   1423.18909     728.5435     635.5147   1423.18909     728.5435     635.5147
   1423.17383     727.9214     635.3235   1423.17383     727.9214     635.3235
   1423.15857     728.8030     635.0124   1423.15857     728.8030     635.0124
   1423.14331     728.0131     633.3429   1423.14331     728.0131     633.3429
   1423.12805     729.2422     634.1835   1423.12805     729.2422     634.1835
   1423.11279     727.7208     633.6844   1423.11279     727.7208     633.6844
   1423.09753     727.5073     634.0982   1423.09753     727.5073     634.0982
   1423.08228     728.0400     633.7575   1423.08228     728.0400     633.7575
   1423.06702     728.4280     633.2600   1423.06702     728.4280     633.2600
   1423.05176     726.5221     632.7070   1423.05176     726.5221     632.7070
   1423.03650     727.9161     632.7805   1423.03650     727.9161     632.7805
   1423.02124     726.5736     632.0229   1423.02124     726.5736     632.0229
   1423.00598     726.5198     631.7531   1423.00598     726.5198     631.7531
   1422.99072     726.5761     631.6630   1422.99072     726.5761     631.6630
   1422.97546     727.4958     631.1514   1422.97546     727.4958     631.1514
   1422.96021     725.9020     630.6262   1422.96021     725.9020     630.6262
   1422.94495     725.5279     628.9263   1422.94495     725.5279     628.9263
   1422.92969     724.8539     628.6850   1422.92969     724.8539     628.6850
   1422.91443     726.0674     628.8718   1422.91443     726.0674     628.8718
   1422.89917     725.4349     628.4316   1422.89917     725.4349     628.4316
   1422.88391     724.7585     628.2703   1422.88391     724.7585     628.2703
   1422.86865     725.0010     627.9324   1422.86865     725.0010     627.9324
   1422.85339     724.4959     627.4901   1422.85339     724.4959     627.4901
   1422.83813     725.6010     627.0803   1422.83813     725.6010     627.0803
   1422.82288     724.4854     626.3253   1422.82288     724.4854     626.3253
   1422.80762     723.7877     626.3850   1422.80762     723.7877     626.3850
   1422.79236     724.1223     624.7759   1422.79236     724.1223     624.7759
   1422.77710     723.1412     624.4981   1422.77710     723.1412     624.4981
   1422.76184     723.6919     623.4250   1422.76184     723.6919     623.4250
   1422.74658     724.6116     624.0889   1422.74658     724.6116     624.0889
   1422.73132     723.6654     621.8712   1422.73132     723.6654     621.8712
   1422.71606     722.4116     622.1990   1422.71606     722.4116     622.1990
   1422.70081     724.1855     621.7181   1422.70081     724.1855     621.7181
   1422.68555     721.9597     620.3292   1422.68555     721.9597     620.3292
   1422.67029     721.6252     618.9590   1422.67029     721.6252     618.9590
   1422.65503     721.2334     618.5145   1422.65503     721.2334     618.5145
   1422.63977     721.4324     618.7666   1422.63977     721.4324     618.7666
   1422.62451     720.7617     617.9749   1422.62451     720.7617     617.9749
   1422.60925     722.4977     617.1581   1422.60925     722.4977     617.1581
   1422.59399     720.6993     616.7792   1422.59399     720.6993     616.7792
   1422.57874     721.1967     616.0700   1422.57874     721.1967     616.0700
   1422.56348     720.8802     615.5613   1422.56348     720.8802     615.5613
   1422.54822     720.9144     613.5893   1422.54822     720.9144     613.5893
   1422.53296     720.4073     612.5302   1422.53296     720.4073     612.5302
   1422.51770     719.7812     612.4617   1422.51770     719.7812     612.4617
   1422.50244     720.7662     612.1599   1422.50244     720.7662     612.1599
   1422.48718     721.5182     610.1619   1422.48718     721.5182     610.1619
   1422.47192     720.0041     609.3943   1422.47192     720.0041     609.3943
   1422.45667     720.8488     608.7892   1422.45667     720.8488     608.7892
   1422.44141     718.9370     607.2164   1422.44141     718.9370     607.2164
   1422.42615     720.5718     606.8163   1422.42615     720.5718     606.8163
   1422.41089     718.5797     605.7120   1422.41089     718.5797     605.7120
   1422.39563     718.1851     605.4352   1422.39563     718.1851     605.4352
   1422.38037     718.9191     604.5291   1422.38037     718.9191     604.5291
   1422.36511     718.3246     602.9365   1422.36511     718.3246     602.9365
   1422.34985     717.0124     602.1970   1422.34985     717.0124     602.1970
   1422.33459     718.9017     601.2979   1422.33459     718.9017     601.2979
   1422.31934     718.4412     600.2225   1422.31934     718.4412     600.2225
   1422.30408     718.7371     599.7360   1422.30408     718.7371     599.7360
   1422.28882     717.0689     598.5880   1422.28882     717.0689     598.5880
   1422.27356     716.8433     597.2607   1422.27356     716.8433     597.2607
   1422.25830     718.2390     595.2542   1422.25830     718.2390     595.2542
   1422.24304     716.9199     594.8049   1422.24304     716.9199     594.8049
   1422.22778     717.3370     594.4020   1422.22778     717.3370     594.4020
   1422.21252     717.7786     592.5248   1422.21252     717.7786     592.5248
   1422.19727     716.4327     591.7411   1422.19727     716.4327     591.7411
   1422.18201     716.3885     589.2410   1422.18201     716.3885     589.2410
   1422.16675     717.1539     589.1324   1422.16675     717.1539     589.1324
   1422.15149     715.6819     588.4476   1422.15149     715.6819     588.4476
   1422.13623     715.7252     586.8039   1422.13623     715.7252     586.8039
   1422.12097     715.5643     585.7836   1422.12097     715.5643     585.7836
   1422.10571     715.7480     584.5465   1422.10571     715.7480     584.5465
   1422.09045     715.5959     583.1158   1422.09045     715.5959     583.1158
   1422.07520     714.3053     582.2473   1422.07520     714.3053     582.2473
   1422.05994     714.0895     581.5248   1422.05994     714.0895     581.5248
   1422.04468     714.0467     580.8752   1422.04468     714.0467     580.8752
   1422.02942     714.3360     578.4877   1422.02942     714.3360     578.4877
   1422.01416     714.3384     577.8777   1422.01416     714.3384     577.8777
   1421.99890     713.6044     576.0877   1421.99890     713.6044     576.0877
   1421.98364     713.3665     574.6705   1421.98364     713.3665     574.6705
   1421.96838     713.9548     573.9339   1421.96838     713.9548     573.9339
   1421.95312     713.2542     572.6295   1421.95312     713.2542     572.6295
   1421.93787     713.4036     571.7122   1421.93787     713.4036     571.7122
   1421.92261     712.3749     570.4373   1421.92261     712.3749     570.4373
   1421.90735     713.3527     567.2873   1421.90735     713.3527     567.2873
   1421.89209     713.1915     567.9935   1421.89209     713.1915     567.9935
   1421.87683     712.6081     566.9768   1421.87683     712.6081     566.9768
   1421.86157     713.8937     565.5633   1421.86157     713.8937     565.5633
   1421.84631     712.3134     563.0898   1421.84631     712.3134     563.0898
   1421.83105     711.4998     562.6311   1421.83105     711.4998     562.6311
   1421.81580     711.1982     560.9198   1421.81580     711.1982     560.9198
   1421.80054     712.1447     560.2723   1421.80054     712.1447     560.2723
   1421.78528     711.0495     558.2784   1421.78528     711.0495     558.2784
   1421.77002     710.5394     556.8593   1421.77002     710.5394     556.8593
   1421.75476     709.7902     556.5131   1421.75476     709.7902     556.5131
   1421.73950     710.7148     554.8612   1421.73950     710.7148     554.8612
   1421.72424     709.6193     553.1541   1421.72424     709.6193     553.1541
   1421.70898     710.0858     551.3961   1421.70898     710.0858     551.3961
   1421.69373     709.1345     550.3743   1421.69373     709.1345     550.3743
   1421.67847     710.2820     548.5131   1421.67847     710.2820     548.5131
   1421.66321     710.1251     548.3477   1421.66321     710.1251     548.3477
   1421.64795     708.9944     547.0591   1421.64795     708.9944     547.0591
   1421.63269     708.1542     545.4494   1421.63269     708.1542     545.4494
   1421.61743     708.4761     544.0332   1421.61743     708.4761     544.0332
   1421.60217     707.6768     542.6034   1421.60217     707.6768     542.6034
   1421.58691     707.9795     540.4415   1421.58691     707.9795     540.4415
   1421.57166     707.6744     540.4458   1421.57166     707.6744     540.4458
   1421.55640     708.2839     538.4628   1421.55640     708.2839     538.4628
   1421.54114     707.8187     537.5480   1421.54114     707.8187     537.5480
   1421.52588     707.4855     536.4177   1421.52588     707.4855     536.4177
   1421.51062     707.8342     535.2905   1421.51062     707.8342     535.2905
   1421.49536     706.6015     533.2108   1421.49536     706.6015     533.2108
   1421.48010     706.3271     531.8970   1421.48010     706.3271     531.8970
   1421.46484     706.3518     530.6440   1421.46484     706.3518     530.6440
   1421.44958     706.8511     529.2823   1421.44958     706.8511     529.2823
   1421.43433     704.9155     528.2641   1421.43433     704.9155     528.2641
   1421.41907     705.6492     526.5485   1421.41907     705.6492     526.5485
   1421.40381     705.0527     525.6156   1421.40381     705.0527     525.6156
   1421.38855     706.1261     523.9904   1421.38855     706.1261     523.9904
   1421.37329     705.5676     523.0837   1421.37329     705.5676     523.0837
   1421.35803     705.3154     521.6157   1421.35803     705.3154     521.6157
   1421.34277     705.0580     520.5991   1421.34277     705.0580     520.5991
   1421.32751     704.4474     519.3503   1421.32751     704.4474     519.3503
   1421.31226     705.0109     518.0370   1421.31226     705.0109     518.0370
   1421.29700     704.9995     517.1426   1421.29700     704.9995     517.1426
   1421.28174     705.5042     515.0679   1421.28174     705.5042     515.0679
   1421.26648     704.3264     514.1223   1421.26648     704.3264     514.1223
   1421.25122     704.9230     513.8395   1421.25122     704.9230     513.8395
   1421.23596     703.9851     511.8717   1421.23596     703.9851     511.8717
   1421.22070     704.8139     511.1356   1421.22070     704.8139     511.1356
   1421.20544     704.8263     510.2989   1421.20544     704.8263     510.2989
   1421.19019     705.7372     509.3844   1421.19019     705.7372     509.3844
   1421.17493     705.1058     507.6486   1421.17493     705.1058     507.6486
   1421.15967     706.1796     506.9623   1421.15967     706.1796     506.9623
   1421.14441     707.5527     507.3239   1421.14441     707.5527     507.3239
   1421.12915     711.3733     508.5139   1421.12915     711.3733     508.5139
   1421.11389     717.5864     511.9326   1421.11389     717.5864     511.9326
   1421.09863     729.6906     519.0252   1421.09863     729.6906     519.0252
   1421.08337     746.5032     530.0035   1421.08337     746.5032     530.0035
   1421.06812     769.2932     543.5992   1421.06812     769.2932     543.5992
   1421.05286     794.1791     561.0078   1421.05286     794.1791     561.0078
   1421.03760     817.8697     575.8315   1421.03760     817.8697     575.8315
   1421.02234     835.0403     585.9532   1421.02234     835.0403     585.9532
   1421.00708     845.4843     593.0421   1421.00708     845.4843     593.0421
   1420.99182     859.3138     600.3694   1420.99182     859.3138     600.3694
   1420.97656     878.4828     611.3499   1420.97656     878.4828     611.3499
   1420.96130     882.5825     613.6067   1420.96130     882.5825     613.6067
   1420.94604     864.9646     599.9089   1420.94604     864.9646     599.9089
   1420.93079     844.4500     584.8085   1420.93079     844.4500     584.8085
   1420.91553     812.2880     561.5259   1420.91553     812.2880     561.5259
   1420.90027     802.9001     554.4097   1420.90027     802.9001     554.4097
   1420.88501     818.3097     564.4811   1420.88501     818.3097     564.4811
   1420.86975     868.3057     596.6351   1420.86975     868.3057     596.6351
   1420.85449     979.3347     669.4761   1420.85449     979.3347     669.4761
   1420.83923    1178.4041     800.3256   1420.83923    1178.4041     800.3256
   1420.82397    1498.9197    1013.2980   1420.82397    1498.9197    1013.2980
   1420.80872    1737.9882    1166.3270   1420.80872    1737.9882    1166.3270
   1420.79346    1894.3585    1264.5507   1420.79346    1894.3585    1264.5507
   1420.77820    2045.3577    1361.9584   1420.77820    2045.3577    1361.9584
   1420.76294    2023.3243    1344.9448   1420.76294    2023.3243    1344.9448
   1420.74768    1853.5785    1228.9095   1420.74768    1853.5785    1228.9095
   1420.73242    1820.3363    1205.0046   1420.73242    1820.3363    1205.0046
   1420.71716    1833.4211    1215.0588   1420.71716    1833.4211    1215.0588
   1420.70190    1757.7018    1161.3217   1420.70190    1757.7018    1161.3217
   1420.68665    1623.5587    1072.1968   1420.68665    1623.5587    1072.1968
   1420.67139    1370.5182     902.5732   1420.67139    1370.5182     902.5732
   1420.65613    1259.1821     832.5901   1420.65613    1259.1821     832.5901
   1420.64087    1287.7388     848.8707   1420.64087    1287.7388     848.8707
   1420.62561    1307.6202     861.9796   1420.62561    1307.6202     861.9796
   1420.61035    1211.1884     796.5956   1420.61035    1211.1884     796.5956
   1420.59509    1097.5798     721.3458   1420.59509    1097.5798     721.3458
   1420.57983    1067.8687     701.4153   1420.57983    1067.8687     701.4153
   1420.56458    1197.5731     782.8037   1420.56458    1197.5731     782.8037
   1420.54932    1408.3571     914.6359   1420.54932    1408.3571     914.6359
   1420.53406    1717.2603    1111.9620   1420.53406    1717.2603    1111.9620
   1420.51880    1965.4849    1267.5125   1420.51880    1965.4849    1267.5125
   1420.50354    1692.1731    1089.4725   1420.50354    1692.1731    1089.4725
   1420.48828    1280.1350     827.4034   1420.48828    1280.1350     827.4034
   1420.47302    1018.9897     661.5664   1420.47302    1018.9897     661.5664
   1420.45776     879.1517     569.7928   1420.45776     879.1517     569.7928
   1420.44250     791.7600     514.7035   1420.44250     791.7600     514.7035
   1420.42725     743.1212     482.8536   1420.42725     743.1212     482.8536
   1420.41199     722.5549     468.5093   1420.41199     722.5549     468.5093
   1420.39673     710.5526     460.5192   1420.39673     710.5526     460.5192
   1420.38147     705.3497     456.6470   1420.38147     705.3497     456.6470
   1420.36621     701.4132     453.5079   1420.36621     701.4132     453.5079
   1420.35095     700.7786     452.1322   1420.35095     700.7786     452.1322
   1420.33569     698.2107     450.5434   1420.33569     698.2107     450.5434
   1420.32043     697.5444     449.0405   1420.32043     697.5444     449.0405
   1420.30518     697.4142     447.5569   1420.30518     697.4142     447.5569
   1420.28992     695.1904     446.7542   1420.28992     695.1904     446.7542
   1420.27466     696.5133     445.5550   1420.27466     696.5133     445.5550
   1420.25940     695.8024     444.5182   1420.25940     695.8024     444.5182
   1420.24414     696.9407     443.1911   1420.24414     696.9407     443.1911
   1420.22888     696.7810     441.9575   1420.22888     696.7810     441.9575
   1420.21362     696.0441     441.8905   1420.21362     696.0441     441.8905
   1420.19836     694.7628     440.4204   1420.19836     694.7628     440.4204
   1420.18311     693.3755     438.5488   1420.18311     693.3755     438.5488
   1420.16785     692.0435     437.7817   1420.16785     692.0435     437.7817
   1420.15259     691.7131     436.8225   1420.15259     691.7131     436.8225
   1420.13733     690.7894     435.2178   1420.13733     690.7894     435.2178
   1420.12207     690.8242     434.6713   1420.12207     690.8242     434.6713
   1420.10681     689.6514     433.4655   1420.10681     689.6514     433.4655
   1420.09155     689.8065     432.5259   1420.09155     689.8065     432.5259
   1420.07629     690.5399     431.7924   1420.07629     690.5399     431.7924
   1420.06104     689.3743     430.8719   1420.06104     689.3743     430.8719
   1420.04578     688.4175     430.4940   1420.04578     688.4175     430.4940
   1420.03052     688.8122     430.0193   1420.03052     688.8122     430.0193
   1420.01526     690.5040     430.4413   1420.01526     690.5040     430.4413
   1420.00000     690.6453     430.3380   1420.00000     690.6453     430.3380
   1419.98474     690.7867     430.2346   1419.98474     690.7867     430.2346
   1419.96948     691.6906     429.3301   1419.96948     691.6906     429.3301
   1419.95422     688.9317     426.2084   1419.95422     688.9317     426.2084
   1419.93896     689.0735     425.6789   1419.93896     689.0735     425.6789
   1419.92371     689.0341     425.8143   1419.92371     689.0341     425.8143
   1419.90845     688.8192     424.4774   1419.90845     688.8192     424.4774
   1419.89319     688.6162     424.1068   1419.89319     688.6162     424.1068
   1419.87793     689.0137     424.4008   1419.87793     689.0137     424.4008
   1419.86267     689.3835     423.9699   1419.86267     689.3835     423.9699
   1419.84741     688.8432     422.7731   1419.84741     688.8432     422.7731
   1419.83215     690.5020     422.9646   1419.83215     690.5020     422.9646
   1419.81689     690.6456     422.3952   1419.81689     690.6456     422.3952
   1419.80164     689.1615     422.4886   1419.80164     689.1615     422.4886
   1419.78638     689.5453     421.4429   1419.78638     689.5453     421.4429
   1419.77112     690.6270     420.8818   1419.77112     690.6270     420.8818
   1419.75586     691.2668     421.5015   1419.75586     691.2668     421.5015
   1419.74060     689.9453     421.3734   1419.74060     689.9453     421.3734
   1419.72534     691.3226     421.0187   1419.72534     691.3226     421.0187
   1419.71008     691.2462     419.7449   1419.71008     691.2462     419.7449
   1419.69482     691.3242     420.5613   1419.69482     691.3242     420.5613
   1419.67957     691.6783     419.5060   1419.67957     691.6783     419.5060
   1419.66431     692.8954     420.0220   1419.66431     692.8954     420.0220
   1419.64905     693.4098     419.9494   1419.64905     693.4098     419.9494
   1419.63379     692.3003     419.1060   1419.63379     692.3003     419.1060
   1419.61853     693.2222     419.1945   1419.61853     693.2222     419.1945
   1419.60327     694.2241     418.6662   1419.60327     694.2241     418.6662
   1419.58801     693.2108     418.7582   1419.58801     693.2108     418.7582
   1419.57275     694.3466     418.6970   1419.57275     694.3466     418.6970
   1419.55750     694.9585     419.3123   1419.55750     694.9585     419.3123
   1419.54224     694.2126     417.7836   1419.54224     694.2126     417.7836
   1419.52698     695.3775     418.7262   1419.52698     695.3775     418.7262
   1419.51172     697.0186     418.2770   1419.51172     697.0186     418.2770
   1419.49646     696.1150     417.7900   1419.49646     696.1150     417.7900
   1419.48120     695.9607     418.1071   1419.48120     695.9607     418.1071
   1419.46594     697.3383     417.8378   1419.46594     697.3383     417.8378
   1419.45068     697.0037     417.3512   1419.45068     697.0037     417.3512
   1419.43542     697.4641     418.1408   1419.43542     697.4641     418.1408
   1419.42017     697.5698     417.2687   1419.42017     697.5698     417.2687
   1419.40491     698.3016     417.4620   1419.40491     698.3016     417.4620
   1419.38965     698.9473     417.5524   1419.38965     698.9473     417.5524
   1419.37439     699.9376     417.9550   1419.37439     699.9376     417.9550
   1419.35913     698.7576     417.3400   1419.35913     698.7576     417.3400
   1419.34387     699.1937     417.3481   1419.34387     699.1937     417.3481
   1419.32861     700.3828     417.3975   1419.32861     700.3828     417.3975
   1419.31335     701.1132     417.8878   1419.31335     701.1132     417.8878
   1419.29810     701.3113     418.2284   1419.29810     701.3113     418.2284
   1419.28284     702.2906     417.8473   1419.28284     702.2906     417.8473
   1419.26758     701.8812     418.8011   1419.26758     701.8812     418.8011
   1419.25232     703.6688     418.2365   1419.25232     703.6688     418.2365
   1419.23706     703.1224     418.5769   1419.23706     703.1224     418.5769
   1419.22180     703.9947     418.8790   1419.22180     703.9947     418.8790
   1419.20654     704.2244     418.7844   1419.20654     704.2244     418.7844
   1419.19128     705.9262     418.8990   1419.19128     705.9262     418.8990
   1419.17603     705.0483     419.5126   1419.17603     705.0483     419.5126
   1419.16077     704.8231     418.8684   1419.16077     704.8231     418.8684
   1419.14551     706.1185     419.9490   1419.14551     706.1185     419.9490
   1419.13025     706.9718     419.5514   1419.13025     706.9718     419.5514
   1419.11499     707.9871     419.4499   1419.11499     707.9871     419.4499
   1419.09973     707.9138     419.9495   1419.09973     707.9138     419.9495
   1419.08447     708.2275     420.8448   1419.08447     708.2275     420.8448
   1419.06921     708.8713     420.6439   1419.06921     708.8713     420.6439
   1419.05396     709.8225     420.8329   1419.05396     709.8225     420.8329
   1419.03870     710.7598     420.8980   1419.03870     710.7598     420.8980
   1419.02344     710.5132     421.9367   1419.02344     710.5132     421.9367
   1419.00818     710.7245     421.5579   1419.00818     710.7245     421.5579
   1418.99292     711.4048     421.8190   1418.99292     711.4048     421.8190
   1418.97766     712.2220     422.4517   1418.97766     712.2220     422.4517
   1418.96240     712.4293     422.5480   1418.96240     712.4293     422.5480
   1418.94714     714.2969     422.4291   1418.94714     714.2969     422.4291
   1418.93188     713.3746     422.9344   1418.93188     713.3746     422.9344
   1418.91663     715.0999     423.9940   1418.91663     715.0999     423.9940
   1418.90137     715.6307     424.7371   1418.90137     715.6307     424.7371
   1418.88611     716.2812     424.8239   1418.88611     716.2812     424.8239
   1418.87085     715.1735     424.5431   1418.87085     715.1735     424.5431
   1418.85559     717.5088     425.7308   1418.85559     717.5088     425.7308
   1418.84033     718.1866     426.0138   1418.84033     718.1866     426.0138
   1418.82507     719.0037     425.7636   1418.82507     719.0037     425.7636
   1418.80981     719.2292     426.6946   1418.80981     719.2292     426.6946
   1418.79456     720.2334     426.9555   1418.79456     720.2334     426.9555
   1418.77930     720.7440     427.3835   1418.77930     720.7440     427.3835
   1418.76404     723.1028     428.2090   1418.76404     723.1028     428.2090
   1418.74878     721.0898     429.0439   1418.74878     721.0898     429.0439
   1418.73352     723.5331     429.2988   1418.73352     723.5331     429.2988
   1418.71826     723.7865     429.9876   1418.71826     723.7865     429.9876
   1418.70300     723.6193     430.2815   1418.70300     723.6193     430.2815
   1418.68774     725.0255     430.0331   1418.68774     725.0255     430.0331
   1418.67249     727.1199     431.2157   1418.67249     727.1199     431.2157
   1418.65723     726.4360     431.6063   1418.65723     726.4360     431.6063
   1418.64197     727.0935     432.0808   1418.64197     727.0935     432.0808
   1418.62671     727.8631     433.1897   1418.62671     727.8631     433.1897
   1418.61145     728.7316     433.5453   1418.61145     728.7316     433.5453
   1418.59619     730.2672     433.7961   1418.59619     730.2672     433.7961
   1418.58093     730.3629     434.6667   1418.58093     730.3629     434.6667
   1418.56567     731.1120     435.0213   1418.56567     731.1120     435.0213
   1418.55042     732.6624     435.4941   1418.55042     732.6624     435.4941
   1418.53516     732.8906     436.5019   1418.53516     732.8906     436.5019
   1418.51990     733.2607     437.4112   1418.51990     733.2607     437.4112
   1418.50464     734.8991     438.1519   1418.50464     734.8991     438.1519
   1418.48938     735.4424     438.4050   1418.48938     735.4424     438.4050
   1418.47412     736.9459     438.7721   1418.47412     736.9459     438.7721
   1418.45886     735.5605     440.3244   1418.45886     735.5605     440.3244
   1418.44360     737.0013     439.5542   1418.44360     737.0013     439.5542
   1418.42834     739.6307     440.7259   1418.42834     739.6307     440.7259
   1418.41309     739.5119     442.1674   1418.41309     739.5119     442.1674
   1418.39783     739.3283     442.4857   1418.39783     739.3283     442.4857
   1418.38257     741.2676     443.6547   1418.38257     741.2676     443.6547
   1418.36731     742.0306     444.5586   1418.36731     742.0306     444.5586
   1418.35205     742.0620     444.4839   1418.35205     742.0620     444.4839
   1418.33679     744.0543     445.9756   1418.33679     744.0543     445.9756
   1418.32153     744.5175     447.0273   1418.32153     744.5175     447.0273
   1418.30627     745.0746     446.9867   1418.30627     745.0746     446.9867
   1418.29102     746.6979     447.6267   1418.29102     746.6979     447.6267
   1418.27576     748.0288     448.6737   1418.27576     748.0288     448.6737
   1418.26050     748.0325     449.2165   1418.26050     748.0325     449.2165
   1418.24524     750.1213     450.2886   1418.24524     750.1213     450.2886
   1418.22998     750.1058     451.6925   1418.22998     750.1058     451.6925
   1418.21472     751.3987     451.5711   1418.21472     751.3987     451.5711
   1418.19946     752.3577     452.2388   1418.19946     752.3577     452.2388
   1418.18420     753.0309     452.9886   1418.18420     753.0309     452.9886
   1418.16895     753.2091     454.1024   1418.16895     753.2091     454.1024
   1418.15369     754.7872     455.1649   1418.15369     754.7872     455.1649
   1418.13843     755.2983     455.4955   1418.13843     755.2983     455.4955
   1418.12317     756.1051     456.5625   1418.12317     756.1051     456.5625
   1418.10791     756.9343     457.8580   1418.10791     756.9343     457.8580
   1418.09265     759.1332     458.1082   1418.09265     759.1332     458.1082
   1418.07739     758.3381     458.3092   1418.07739     758.3381     458.3092
   1418.06213     758.8240     460.1908   1418.06213     758.8240     460.1908
   1418.04688     760.6636     461.0335   1418.04688     760.6636     461.0335
   1418.03162     762.4515     462.1753   1418.03162     762.4515     462.1753
   1418.01636     762.2448     463.2209   1418.01636     762.2448     463.2209
   1418.00110     764.5896     463.3156   1418.00110     764.5896     463.3156
   1417.98584     765.3563     464.3823   1417.98584     765.3563     464.3823
   1417.97058     766.6147     465.3548   1417.97058     766.6147     465.3548
   1417.95532     766.9757     466.1945   1417.95532     766.9757     466.1945
   1417.94006     766.8910     466.8476   1417.94006     766.8910     466.8476
   1417.92480     767.8805     467.9173   1417.92480     767.8805     467.9173
   1417.90955     769.4895     468.8279   1417.90955     769.4895     468.8279
   1417.89429     770.7853     469.3661   1417.89429     770.7853     469.3661
   1417.87903     771.9344     470.3710   1417.87903     771.9344     470.3710
   1417.86377     773.5208     471.2063   1417.86377     773.5208     471.2063
   1417.84851     773.4023     472.4804   1417.84851     773.4023     472.4804
   1417.83325     774.8470     473.2495   1417.83325     774.8470     473.2495
   1417.81799     775.7800     474.1075   1417.81799     775.7800     474.1075
   1417.80273     776.8141     475.5141   1417.80273     776.8141     475.5141
   1417.78748     777.6258     476.0931   1417.78748     777.6258     476.0931
   1417.77222     778.3990     477.5125   1417.77222     778.3990     477.5125
   1417.75696     779.9472     478.2024   1417.75696     779.9472     478.2024
   1417.74170     780.6631     479.1929   1417.74170     780.6631     479.1929
   1417.72644     781.1752     479.3682   1417.72644     781.1752     479.3682
   1417.71118     781.9857     480.7209   1417.71118     781.9857     480.7209
   1417.69592     783.0863     481.8929   1417.69592     783.0863     481.8929
   1417.68066     781.8708     482.5185   1417.68066     781.8708     482.5185
   1417.66541     785.8165     482.8351   1417.66541     785.8165     482.8351
   1417.65015     785.8810     484.3820   1417.65015     785.8810     484.3820
   1417.63489     787.0089     485.9880   1417.63489     787.0089     485.9880
   1417.61963     788.8964     486.1202   1417.61963     788.8964     486.1202
   1417.60437     788.8950     487.0359   1417.60437     788.8950     487.0359
   1417.58911     787.9285     488.3828   1417.58911     787.9285     488.3828
   1417.57385     790.3683     488.1777   1417.57385     790.3683     488.1777
   1417.55859     791.3694     490.0976   1417.55859     791.3694     490.0976
   1417.54333     791.6618     490.5030   1417.54333     791.6618     490.5030
   1417.52808     794.1534     491.7666   1417.52808     794.1534     491.7666
   1417.51282     794.7288     492.7198   1417.51282     794.7288     492.7198
   1417.49756     795.4672     493.3310   1417.49756     795.4672     493.3310
   1417.48230     795.6389     494.6362   1417.48230     795.6389     494.6362
   1417.46704     796.1524     494.8424   1417.46704     796.1524     494.8424
   1417.45178     796.9669     496.0736   1417.45178     796.9669     496.0736
   1417.43652     798.8929     497.5111   1417.43652     798.8929     497.5111
   1417.42126     799.0241     496.7203   1417.42126     799.0241     496.7203
   1417.40601     799.3386     498.6160   1417.40601     799.3386     498.6160
   1417.39075     800.9221     499.2536   1417.39075     800.9221     499.2536
   1417.37549     802.1973     500.2672   1417.37549     802.1973     500.2672
   1417.36023     802.5516     500.4428   1417.36023     802.5516     500.4428
   1417.34497     802.9643     501.9133   1417.34497     802.9643     501.9133
   1417.32971     804.1598     503.1235   1417.32971     804.1598     503.1235
   1417.31445     805.5277     502.3199   1417.31445     805.5277     502.3199
   1417.29919     805.4994     504.3593   1417.29919     805.4994     504.3593
   1417.28394     807.6299     505.2598   1417.28394     807.6299     505.2598
   1417.26868     807.7266     505.5524   1417.26868     807.7266     505.5524
   1417.25342     808.2880     506.2781   1417.25342     808.2880     506.2781
   1417.23816     809.4205     507.3579   1417.23816     809.4205     507.3579
   1417.22290     810.5360     508.3893   1417.22290     810.5360     508.3893
   1417.20764     811.5013     508.7936   1417.20764     811.5013     508.7936
   1417.19238     811.4059     509.0173   1417.19238     811.4059     509.0173
   1417.17712     813.3610     509.8139   1417.17712     813.3610     509.8139
   1417.16187     812.9221     511.1156   1417.16187     812.9221     511.1156
   1417.14661     813.1930     511.3945   1417.14661     813.1930     511.3945
   1417.13135     814.0518     512.4176   1417.13135     814.0518     512.4176
   1417.11609     814.9594     511.9897   1417.11609     814.9594     511.9897
   1417.10083     815.1433     513.7797   1417.10083     815.1433     513.7797
   1417.08557     815.7095     513.8125   1417.08557     815.7095     513.8125
   1417.07031     817.0724     514.2377   1417.07031     817.0724     514.2377
   1417.05505     817.0748     516.0313   1417.05505     817.0748     516.0313
   1417.03979     817.1028     515.4689   1417.03979     817.1028     515.4689
   1417.02454     819.1201     516.4540   1417.02454     819.1201     516.4540
   1417.00928     818.1857     515.9357   1417.00928     818.1857     515.9357
   1416.99402     820.0677     516.8854   1416.99402     820.0677     516.8854
   1416.97876     820.1356     517.9719   1416.97876     820.1356     517.9719
   1416.96350     820.6006     517.6432   1416.96350     820.6006     517.6432
   1416.94824     820.4667     518.5929   1416.94824     820.4667     518.5929
   1416.93298     822.6232     518.6542   1416.93298     822.6232     518.6542
   1416.91772     821.1417     519.3688   1416.91772     821.1417     519.3688
   1416.90247     821.2891     519.3208   1416.90247     821.2891     519.3208
   1416.88721     822.3818     520.2460   1416.88721     822.3818     520.2460
   1416.87195     823.4388     520.5546   1416.87195     823.4388     520.5546
   1416.85669     823.9330     520.4969   1416.85669     823.9330     520.4969
   1416.84143     823.3000     521.6743   1416.84143     823.3000     521.6743
   1416.82617     825.1225     522.5606   1416.82617     825.1225     522.5606
   1416.81091     825.2675     521.8480   1416.81091     825.2675     521.8480
   1416.79565     825.3283     522.7404   1416.79565     825.3283     522.7404
   1416.78040     826.6917     522.8366   1416.78040     826.6917     522.8366
   1416.76514     825.3118     522.5957   1416.76514     825.3118     522.5957
   1416.74988     826.7639     523.4063   1416.74988     826.7639     523.4063
   1416.73462     825.1258     524.2256   1416.73462     825.1258     524.2256
   1416.71936     825.5982     523.5974   1416.71936     825.5982     523.5974
   1416.70410     826.8037     523.7104   1416.70410     826.8037     523.7104
   1416.68884     826.4404     523.7109   1416.68884     826.4404     523.7109
   1416.67358     826.7900     523.7493   1416.67358     826.7900     523.7493
   1416.65833     827.1982     524.3533   1416.65833     827.1982     524.3533
   1416.64307     828.2478     524.3144   1416.64307     828.2478     524.3144
   1416.62781     827.3100     524.2094   1416.62781     827.3100     524.2094
   1416.61255     828.6330     524.5169   1416.61255     828.6330     524.5169
   1416.59729     828.2209     524.9193   1416.59729     828.2209     524.9193
   1416.58203     828.7366     524.4097   1416.58203     828.7366     524.4097
   1416.56677     828.5097     524.1354   1416.56677     828.5097     524.1354
   1416.55151     827.7364     523.6327   1416.55151     827.7364     523.6327
   1416.53625     827.5270     524.1110   1416.53625     827.5270     524.1110
   1416.52100     827.1272     524.0704   1416.52100     827.1272     524.0704
   1416.50574     827.3134     524.5101   1416.50574     827.3134     524.5101
   1416.49048     827.2747     523.7388   1416.49048     827.2747     523.7388
   1416.47522     828.8602     523.9097   1416.47522     828.8602     523.9097
   1416.45996     827.5720     523.6754   1416.45996     827.5720     523.6754
   1416.44470     827.5117     523.8161   1416.44470     827.5117     523.8161
   1416.42944     827.7570     522.9689   1416.42944     827.7570     522.9689
   1416.41418     827.0271     522.8326   1416.41418     827.0271     522.8326
   1416.39893     827.4755     522.7085   1416.39893     827.4755     522.7085
   1416.38367     827.0570     521.8696   1416.38367     827.0570     521.8696
   1416.36841     826.0163     521.6339   1416.36841     826.0163     521.6339
   1416.35315     827.3791     522.2725   1416.35315     827.3791     522.2725
   1416.33789     825.6486     521.8369   1416.33789     825.6486     521.8369
   1416.32263     825.0566     520.9586   1416.32263     825.0566     520.9586
   1416.30737     826.5199     520.5724   1416.30737     826.5199     520.5724
   1416.29211     826.1160     521.3577   1416.29211     826.1160     521.3577
   1416.27686     826.9001     520.2363   1416.27686     826.9001     520.2363
   1416.26160     823.8551     520.0582   1416.26160     823.8551     520.0582
   1416.24634     825.5908     520.0819   1416.24634     825.5908     520.0819
   1416.23108     825.2859     518.8178   1416.23108     825.2859     518.8178
   1416.21582     824.5656     518.3580   1416.21582     824.5656     518.3580
   1416.20056     823.7676     518.3611   1416.20056     823.7676     518.3611
   1416.18530     823.3539     517.6708   1416.18530     823.3539     517.6708
   1416.17004     823.8717     517.6331   1416.17004     823.8717     517.6331
   1416.15479     821.9398     517.3176   1416.15479     821.9398     517.3176
   1416.13953     822.0430     517.0970   1416.13953     822.0430     517.0970
   1416.12427     821.8992     516.6906   1416.12427     821.8992     516.6906
   1416.10901     820.2790     515.4487   1416.10901     820.2790     515.4487
   1416.09375     820.4755     515.1718   1416.09375     820.4755     515.1718
   1416.07849     821.1503     514.6350   1416.07849     821.1503     514.6350
   1416.06323     820.0043     513.6882   1416.06323     820.0043     513.6882
   1416.04797     818.1490     513.3065   1416.04797     818.1490     513.3065
   1416.03271     818.2725     512.9096   1416.03271     818.2725     512.9096
   1416.01746     818.2438     512.8800   1416.01746     818.2438     512.8800
   1416.00220     816.5136     512.2226   1416.00220     816.5136     512.2226
   1415.98694     817.4991     512.4115   1415.98694     817.4991     512.4115
   1415.97168     817.0540     511.4406   1415.97168     817.0540     511.4406
   1415.95642     816.3098     509.8495   1415.95642     816.3098     509.8495
   1415.94116     815.9584     510.4317   1415.94116     815.9584     510.4317
   1415.92590     813.9468     509.5924   1415.92590     813.9468     509.5924
   1415.91064     814.6835     508.9823   1415.91064     814.6835     508.9823
   1415.89539     812.5200     507.7413   1415.89539     812.5200     507.7413
   1415.88013     812.7535     507.9492   1415.88013     812.7535     507.9492
   1415.86487     811.5361     507.2738   1415.86487     811.5361     507.2738
   1415.84961     810.7533     506.6668   1415.84961     810.7533     506.6668
   1415.83435     809.4608     505.6206   1415.83435     809.4608     505.6206
   1415.81909     810.5177     505.5401   1415.81909     810.5177     505.5401
   1415.80383     809.1127     504.8920   1415.80383     809.1127     504.8920
   1415.78857     807.2110     504.8719   1415.78857     807.2110     504.8719
   1415.77332     806.5179     503.4917   1415.77332     806.5179     503.4917
   1415.75806     805.7762     503.4493   1415.75806     805.7762     503.4493
   1415.74280     806.3396     502.4420   1415.74280     806.3396     502.4420
   1415.72754     804.5065     501.4903   1415.72754     804.5065     501.4903
   1415.71228     804.3018     500.9312   1415.71228     804.3018     500.9312
   1415.69702     803.6295     500.8948   1415.69702     803.6295     500.8948
   1415.68176     803.0395     500.5616   1415.68176     803.0395     500.5616
   1415.66650     801.4819     499.7040   1415.66650     801.4819     499.7040
   1415.65125     799.9192     499.6363   1415.65125     799.9192     499.6363
   1415.63599     800.6580     497.7474   1415.63599     800.6580     497.7474
   1415.62073     799.4832     497.6232   1415.62073     799.4832     497.6232
   1415.60547     798.5553     496.9637   1415.60547     798.5553     496.9637
   1415.59021     796.5038     496.2544   1415.59021     796.5038     496.2544
   1415.57495     796.9420     496.0439   1415.57495     796.9420     496.0439
   1415.55969     794.2266     495.1653   1415.55969     794.2266     495.1653
   1415.54443     794.6487     494.0797   1415.54443     794.6487     494.0797
   1415.52917     793.1219     493.0986   1415.52917     793.1219     493.0986
   1415.51392     791.1733     492.1603   1415.51392     791.1733     492.1603
   1415.49866     791.0220     492.5875   1415.49866     791.0220     492.5875
   1415.48340     789.5279     492.4026   1415.48340     789.5279     492.4026
   1415.46814     789.4840     490.4453   1415.46814     789.4840     490.4453
   1415.45288     789.0228     490.1654   1415.45288     789.0228     490.1654
   1415.43762     787.5092     489.8161   1415.43762     787.5092     489.8161
   1415.42236     786.1737     489.7844   1415.42236     786.1737     489.7844
   1415.40710     784.9351     488.0741   1415.40710     784.9351     488.0741
   1415.39185     783.7011     488.2142   1415.39185     783.7011     488.2142
   1415.37659     782.3915     486.9905   1415.37659     782.3915     486.9905
   1415.36133     780.7079     486.6539   1415.36133     780.7079     486.6539
   1415.34607     779.6554     486.0139   1415.34607     779.6554     486.0139
   1415.33081     778.7198     484.9697   1415.33081     778.7198     484.9697
   1415.31555     778.0712     484.1595   1415.31555     778.0712     484.1595
   1415.30029     776.4309     483.5220   1415.30029     776.4309     483.5220
   1415.28503     773.6202     483.1383   1415.28503     773.6202     483.1383
   1415.26978     772.7076     481.5042   1415.26978     772.7076     481.5042
   1415.25452     771.9521     481.4473   1415.25452     771.9521     481.4473
   1415.23926     770.1930     480.8478   1415.23926     770.1930     480.8478
   1415.22400     769.8790     479.8595   1415.22400     769.8790     479.8595
   1415.20874     767.4766     479.0757   1415.20874     767.4766     479.0757
   1415.19348     765.4192     478.7645   1415.19348     765.4192     478.7645
   1415.17822     765.2249     477.1524   1415.17822     765.2249     477.1524
   1415.16296     763.6884     476.8605   1415.16296     763.6884     476.8605
   1415.14771     761.4222     475.1203   1415.14771     761.4222     475.1203
   1415.13245     760.9420     474.7571   1415.13245     760.9420     474.7571
   1415.11719     759.8514     474.3318   1415.11719     759.8514     474.3318
   1415.10193     757.8330     473.3358   1415.10193     757.8330     473.3358
   1415.08667     756.4785     472.1131   1415.08667     756.4785     472.1131
   1415.07141     755.1423     471.3705   1415.07141     755.1423     471.3705
   1415.05615     752.8292     471.2555   1415.05615     752.8292     471.2555
   1415.04089     751.5547     469.9594   1415.04089     751.5547     469.9594
   1415.02563     749.5518     468.5715   1415.02563     749.5518     468.5715
   1415.01038     748.0689     467.7435   1415.01038     748.0689     467.7435
   1414.99512     747.9609     467.4591   1414.99512     747.9609     467.4591
   1414.97986     745.7833     466.1075   1414.97986     745.7833     466.1075
   1414.96460     743.1423     465.4821   1414.96460     743.1423     465.4821
   1414.94934     741.2113     463.9281   1414.94934     741.2113     463.9281
   1414.93408     740.4655     463.3851   1414.93408     740.4655     463.3851
   1414.91882     738.4601     462.9036   1414.91882     738.4601     462.9036
   1414.90356     735.9319     462.6428   1414.90356     735.9319     462.6428
   1414.88831     735.1885     461.0824   1414.88831     735.1885     461.0824
   1414.87305     733.0646     460.0003   1414.87305     733.0646     460.0003
   1414.85779     730.8951     459.0190   1414.85779     730.8951     459.0190
   1414.84253     729.1362     458.3018   1414.84253     729.1362     458.3018
   1414.82727     727.7949     456.9963   1414.82727     727.7949     456.9963
   1414.81201     725.1198     456.0366   1414.81201     725.1198     456.0366
   1414.79675     723.2297     454.9040   1414.79675     723.2297     454.9040
   1414.78149     721.7615     453.0908   1414.78149     721.7615     453.0908
   1414.76624     718.6800     452.6976   1414.76624     718.6800     452.6976
   1414.75098     718.0153     451.8602   1414.75098     718.0153     451.8602
   1414.73572     716.3061     451.0413   1414.73572     716.3061     451.0413
   1414.72046     713.6871     449.8310   1414.72046     713.6871     449.8310
   1414.70520     710.6830     448.7647   1414.70520     710.6830     448.7647
   1414.68994     710.8893     448.1260   1414.68994     710.8893     448.1260
   1414.67468     707.6970     447.0178   1414.67468     707.6970     447.0178
   1414.65942     705.2737     446.0061   1414.65942     705.2737     446.0061
   1414.64417     703.2049     444.2670   1414.64417     703.2049     444.2670
   1414.62891     700.5555     443.5095   1414.62891     700.5555     443.5095
   1414.61365     698.9913     442.2941   1414.61365     698.9913     442.2941
   1414.59839     695.5648     441.1048   1414.59839     695.5648     441.1048
   1414.58313     693.5450     439.8410   1414.58313     693.5450     439.8410
   1414.56787     691.8401     439.0565   1414.56787     691.8401     439.0565
   1414.55261     688.8766     437.8443   1414.55261     688.8766     437.8443
   1414.53735     688.2054     437.4196   1414.53735     688.2054     437.4196
   1414.52209     685.0783     435.1646   1414.52209     685.0783     435.1646
   1414.50684     682.5533     434.3169   1414.50684     682.5533     434.3169
   1414.49158     680.2401     433.4750   1414.49158     680.2401     433.4750
   1414.47632     678.5218     431.6201   1414.47632     678.5218     431.6201
   1414.46106     676.9917     430.4663   1414.46106     676.9917     430.4663
   1414.44580     673.2219     429.4473   1414.44580     673.2219     429.4473
   1414.43054     671.7878     427.9524   1414.43054     671.7878     427.9524
   1414.41528     669.2507     425.9436   1414.41528     669.2507     425.9436
   1414.40002     667.2672     425.9181   1414.40002     667.2672     425.9181
   1414.38477     663.9136     423.9517   1414.38477     663.9136     423.9517
   1414.36951     661.5051     423.0094   1414.36951     661.5051     423.0094
   1414.35425     658.6843     421.5939   1414.35425     658.6843     421.5939
   1414.33899     655.6191     420.3889   1414.33899     655.6191     420.3889
   1414.32373     654.0380     419.4291   1414.32373     654.0380     419.4291
   1414.30847     651.3104     417.4965   1414.30847     651.3104     417.4965
   1414.29321     647.9682     416.6487   1414.29321     647.9682     416.6487
   1414.27795     645.9668     414.8250   1414.27795     645.9668     414.8250
   1414.26270     643.1306     413.9456   1414.26270     643.1306     413.9456
   1414.24744     639.9691     412.1299   1414.24744     639.9691     412.1299
   1414.23218     638.6174     410.7875   1414.23218     638.6174     410.7875
   1414.21692     635.7112     409.9658   1414.21692     635.7112     409.9658
   1414.20166     631.0046     408.5067   1414.20166     631.0046     408.5067
   1414.18640     630.4149     407.0158   1414.18640     630.4149     407.0158
   1414.17114     625.8981     405.4847   1414.17114     625.8981     405.4847
   1414.15588     623.9742     403.4413   1414.15588     623.9742     403.4413
   1414.14062     621.6335     403.0025   1414.14062     621.6335     403.0025
   1414.12537     619.1968     401.0201   1414.12537     619.1968     401.0201
   1414.11011     615.8837     400.0443   1414.11011     615.8837     400.0443
   1414.09485     613.8262     398.7977   1414.09485     613.8262     398.7977
   1414.07959     611.0213     396.2829   1414.07959     611.0213     396.2829
   1414.06433     608.1512     395.4852   1414.06433     608.1512     395.4852
   1414.04907     603.7239     394.1108   1414.04907     603.7239     394.1108
   1414.03381     603.1168     392.1104   1414.03381     603.1168     392.1104
   1414.01855     600.1437     391.2593   1414.01855     600.1437     391.2593
   1414.00330     617.7770     397.0303   1414.00330     617.7770     397.0303
   1413.98804     595.1122     389.0726   1413.98804     595.1122     389.0726
   1413.97278     591.1028     387.0315   1413.97278     591.1028     387.0315
   1413.95752     587.6071     384.8172   1413.95752     587.6071     384.8172
   1413.94226     585.2846     383.2622   1413.94226     585.2846     383.2622
   1413.92700     581.2679     382.6045   1413.92700     581.2679     382.6045
   1413.91174     577.6162     380.0350   1413.91174     577.6162     380.0350
   1413.89648     575.6078     379.1325   1413.89648     575.6078     379.1325
   1413.88123     573.0502     377.4912   1413.88123     573.0502     377.4912
   1413.86597     568.8076     376.4855   1413.86597     568.8076     376.4855
   1413.85071     566.8910     374.3649   1413.85071     566.8910     374.3649
   1413.83545     563.8396     373.0065   1413.83545     563.8396     373.0065
   1413.82019     559.6989     371.9285   1413.82019     559.6989     371.9285
   1413.80493     557.4322     369.4421   1413.80493     557.4322     369.4421
   1413.78967     555.1593     368.2137   1413.78967     555.1593     368.2137
   1413.77441     552.7357     367.0001   1413.77441     552.7357     367.0001
   1413.75916     547.8732     364.9870   1413.75916     547.8732     364.9870
   1413.74390     545.7056     363.5424   1413.74390     545.7056     363.5424
   1413.72864     542.3848     363.2030   1413.72864     542.3848     363.2030
   1413.71338     540.5319     360.4457   1413.71338     540.5319     360.4457
   1413.69812     536.5046     359.1768   1413.69812     536.5046     359.1768
   1413.68286     534.0125     357.4613   1413.68286     534.0125     357.4613
   1413.66760     530.9718     356.3383   1413.66760     530.9718     356.3383
   1413.65234     527.9425     354.1624   1413.65234     527.9425     354.1624
   1413.63708     524.6624     353.2449   1413.63708     524.6624     353.2449
   1413.62183     521.3659     351.2142   1413.62183     521.3659     351.2142
   1413.60657     519.8646     350.2701   1413.60657     519.8646     350.2701
   1413.59131     515.9398     348.6922   1413.59131     515.9398     348.6922
   1413.57605     512.5685     347.2324   1413.57605     512.5685     347.2324
   1413.56079     510.0578     344.8985   1413.56079     510.0578     344.8985
   1413.54553     508.2246     343.6923   1413.54553     508.2246     343.6923
   1413.53027     504.3669     342.6273   1413.53027     504.3669     342.6273
   1413.51501     501.4719     341.0343   1413.51501     501.4719     341.0343
   1413.49976     498.3714     338.8519   1413.49976     498.3714     338.8519
   1413.48450     495.2347     337.7747   1413.48450     495.2347     337.7747
   1413.46924     493.2084     335.8240   1413.46924     493.2084     335.8240
   1413.45398     489.8520     335.1385   1413.45398     489.8520     335.1385
   1413.43872     486.3275     332.8288   1413.43872     486.3275     332.8288
   1413.42346     484.6676     331.5943   1413.42346     484.6676     331.5943
   1413.40820     481.1898     330.6021   1413.40820     481.1898     330.6021
   1413.39294     478.7801     329.1522   1413.39294     478.7801     329.1522
   1413.37769     475.9619     327.8384   1413.37769     475.9619     327.8384
   1413.36243     472.8818     326.1410   1413.36243     472.8818     326.1410
   1413.34717     470.5801     324.7659   1413.34717     470.5801     324.7659
   1413.33191     466.6043     323.0733   1413.33191     466.6043     323.0733
   1413.31665     463.8621     321.0569   1413.31665     463.8621     321.0569
   1413.30139     461.9641     320.7064   1413.30139     461.9641     320.7064
   1413.28613     459.4019     318.8514   1413.28613     459.4019     318.8514
   1413.27087     456.3807     317.5848   1413.27087     456.3807     317.5848
   1413.25562     453.8835     315.8510   1413.25562     453.8835     315.8510
   1413.24036     451.4198     314.5694   1413.24036     451.4198     314.5694
   1413.22510     449.0564     313.1636   1413.22510     449.0564     313.1636
   1413.20984     446.8595     312.4427   1413.20984     446.8595     312.4427
   1413.19458     443.2723     310.6089   1413.19458     443.2723     310.6089
   1413.17932     441.0249     310.2038   1413.17932     441.0249     310.2038
   1413.16406     438.5037     308.2012   1413.16406     438.5037     308.2012
   1413.14880     436.0172     306.9095   1413.14880     436.0172     306.9095
   1413.13354     434.0431     305.6028   1413.13354     434.0431     305.6028
   1413.11829     430.9753     304.7721   1413.11829     430.9753     304.7721
   1413.10303     428.7591     303.2277   1413.10303     428.7591     303.2277
   1413.08777     426.5077     302.6010   1413.08777     426.5077     302.6010
   1413.07251     424.5209     300.9526   1413.07251     424.5209     300.9526
   1413.05725     422.0171     299.8734   1413.05725     422.0171     299.8734
   1413.04199     419.9431     299.3140   1413.04199     419.9431     299.3140
   1413.02673     417.5549     297.3781   1413.02673     417.5549     297.3781
   1413.01147     416.0694     296.8836   1413.01147     416.0694     296.8836
   1412.99622     414.2213     295.5833   1412.99622     414.2213     295.5833
   1412.98096     411.3956     294.5914   1412.98096     411.3956     294.5914
   1412.96570     408.8536     293.6869   1412.96570     408.8536     293.6869
   1412.95044     407.8924     292.9690   1412.95044     407.8924     292.9690
   1412.93518     405.4341     291.6260   1412.93518     405.4341     291.6260
   1412.91992     403.5479     290.7809   1412.91992     403.5479     290.7809
   1412.90466     401.6218     290.2415   1412.90466     401.6218     290.2415
   1412.88940     399.5756     288.6508   1412.88940     399.5756     288.6508
   1412.87415     398.5205     288.2829   1412.87415     398.5205     288.2829
   1412.85889     396.1906     287.2095   1412.85889     396.1906     287.2095
   1412.84363     394.8540     286.9133   1412.84363     394.8540     286.9133
   1412.82837     393.0736     285.7538   1412.82837     393.0736     285.7538
   1412.81311     391.4035     285.0155   1412.81311     391.4035     285.0155
   1412.79785     389.9539     284.4759   1412.79785     389.9539     284.4759
   1412.78259     388.6682     283.7372   1412.78259     388.6682     283.7372
   1412.76733     386.9226     282.7879   1412.76733     386.9226     282.7879
   1412.75208     385.9218     282.9381   1412.75208     385.9218     282.9381
   1412.73682     384.1740     281.7011   1412.73682     384.1740     281.7011
   1412.72156     383.5728     281.5226   1412.72156     383.5728     281.5226
   1412.70630     381.6111     280.5880   1412.70630     381.6111     280.5880
   1412.69104     380.5074     280.1280   1412.69104     380.5074     280.1280
   1412.67578     379.4019     279.5607   1412.67578     379.4019     279.5607
   1412.66052     378.0838     279.7721   1412.66052     378.0838     279.7721
   1412.64526     377.2108     278.9158   1412.64526     377.2108     278.9158
   1412.63000     376.5095     278.6706   1412.63000     376.5095     278.6706
   1412.61475     375.1869     278.3339   1412.61475     375.1869     278.3339
   1412.59949     374.0915     278.1876   1412.59949     374.0915     278.1876
   1412.58423     373.6645     277.8821   1412.58423     373.6645     277.8821
   1412.56897     372.9732     277.6014   1412.56897     372.9732     277.6014
   1412.55371     371.9631     277.1026   1412.55371     371.9631     277.1026
   1412.53845     371.5100     276.9845   1412.53845     371.5100     276.9845
   1412.52319     370.8202     276.9167   1412.52319     370.8202     276.9167
   1412.50793     370.7984     277.0789   1412.50793     370.7984     277.0789
   1412.49268     369.8787     277.0085   1412.49268     369.8787     277.0085
   1412.47742     369.3790     276.6924   1412.47742     369.3790     276.6924
   1412.46216     369.2731     276.6934   1412.46216     369.2731     276.6934
   1412.44690     368.9773     277.3784   1412.44690     368.9773     277.3784
   1412.43164     368.7531     276.9917   1412.43164     368.7531     276.9917
   1412.41638     368.0558     277.7459   1412.41638     368.0558     277.7459
   1412.40112     367.7191     277.6765   1412.40112     367.7191     277.6765
   1412.38586     367.8862     277.4283   1412.38586     367.8862     277.4283
   1412.37061     367.8580     277.8092   1412.37061     367.8580     277.8092
   1412.35535     368.2910     278.2702   1412.35535     368.2910     278.2702
   1412.34009     368.3324     278.8595   1412.34009     368.3324     278.8595
   1412.32483     369.0889     279.2063   1412.32483     369.0889     279.2063
   1412.30957     368.3590     279.1503   1412.30957     368.3590     279.1503
   1412.29431     368.8878     279.4680   1412.29431     368.8878     279.4680
   1412.27905     368.7383     279.9620   1412.27905     368.7383     279.9620
   1412.26379     369.8424     280.4428   1412.26379     369.8424     280.4428
   1412.24854     369.7819     281.4271   1412.24854     369.7819     281.4271
   1412.23328     370.1045     281.4281   1412.23328     370.1045     281.4281
   1412.21802     370.5934     282.7567   1412.21802     370.5934     282.7567
   1412.20276     371.1605     283.1773   1412.20276     371.1605     283.1773