#     FILENAME=!Skynet_57528_lach-hhg-148_20484_20972.cyb.fits
#     BASENAME=Skynet_57528_lach-hhg-148_20484_20972
#     SRC_NAME=lach-hhg-148
#     OBSERVER=hhgmadison16_9500
#     DATE_OBS=2016-05-20T17:33:37.750
#        OBSID=20484
#      SCANNUM=20972
#          MJD=57528.7327
#          UTC=63306
#     SCANTYPE=track
#     DATAMODE=HIRES
#     TUNEFREQ=1420.0000
# Actual_FREQ1=1420.0000
# Actual_FREQ2=1420.0000
#    LO1Tuning=6870.000
#     RFFILTER=1355_1435
#        OBSBW=-15.6250
#        NCHAN=1024 
#        FOCUS=37.0489
#           RA=03:54:19.88
#          DEC=53:43:20.20
#      RA(hrs)=3.905500
#     DEC(deg)=53.722300
#    AZIM(deg)=351.811
#    ELEV(deg)=74.405
#     IFattens=10.00, 9.00
#      WARNING=None
#    TCAL_XL1=7.9635
#    TCAL_YR1=9.1340
#    TCAL_XL2=7.9635
#    TCAL_YR2=9.1340
#     TRX_XL1=11.7060
#     TRX_YR1=11.7060
#     TRX_XL2=11.7060
#     TRX_YR2=11.7060
#        TAVE=1.0000
#Freq1(MHz)          XL1          YR1  Freq2(MHz)          XL2          YR2 

   1427.81250     380.8470     333.4725   1427.81250     380.8470     333.4725
   1427.79724     381.8814     334.6962   1427.79724     381.8814     334.6962
   1427.78198     382.2849     336.7332   1427.78198     382.2849     336.7332
   1427.76672     383.4822     338.0385   1427.76672     383.4822     338.0385
   1427.75146     383.7558     339.5278   1427.75146     383.7558     339.5278
   1427.73621     384.6798     340.8997   1427.73621     384.6798     340.8997
   1427.72095     385.8115     342.1355   1427.72095     385.8115     342.1355
   1427.70569     386.4368     344.0418   1427.70569     386.4368     344.0418
   1427.69043     388.1638     345.1719   1427.69043     388.1638     345.1719
   1427.67517     389.2461     346.9523   1427.67517     389.2461     346.9523
   1427.65991     390.7080     348.7331   1427.65991     390.7080     348.7331
   1427.64465     391.1232     349.7391   1427.64465     391.1232     349.7391
   1427.62939     392.5190     351.8184   1427.62939     392.5190     351.8184
   1427.61414     393.9308     353.7726   1427.61414     393.9308     353.7726
   1427.59888     395.7159     355.3723   1427.59888     395.7159     355.3723
   1427.58362     396.9619     357.1914   1427.58362     396.9619     357.1914
   1427.56836     398.2673     358.1702   1427.56836     398.2673     358.1702
   1427.55310     399.5053     360.5562   1427.55310     399.5053     360.5562
   1427.53784     401.2134     362.4981   1427.53784     401.2134     362.4981
   1427.52258     403.4011     364.1771   1427.52258     403.4011     364.1771
   1427.50732     404.6649     366.5871   1427.50732     404.6649     366.5871
   1427.49207     406.9317     368.2415   1427.49207     406.9317     368.2415
   1427.47681     408.1455     370.1261   1427.47681     408.1455     370.1261
   1427.46155     410.2471     372.1267   1427.46155     410.2471     372.1267
   1427.44629     411.7251     373.8698   1427.44629     411.7251     373.8698
   1427.43103     413.7354     376.1025   1427.43103     413.7354     376.1025
   1427.41577     416.0079     377.9187   1427.41577     416.0079     377.9187
   1427.40051     417.1099     379.5445   1427.40051     417.1099     379.5445
   1427.38525     418.6855     381.8695   1427.38525     418.6855     381.8695
   1427.37000     421.1183     384.1331   1427.37000     421.1183     384.1331
   1427.35474     424.1329     386.2009   1427.35474     424.1329     386.2009
   1427.33948     425.7286     388.3298   1427.33948     425.7286     388.3298
   1427.32422     427.7026     390.4251   1427.32422     427.7026     390.4251
   1427.30896     430.4246     393.0728   1427.30896     430.4246     393.0728
   1427.29370     432.3080     393.9159   1427.29370     432.3080     393.9159
   1427.27844     434.4889     396.0331   1427.27844     434.4889     396.0331
   1427.26318     437.1602     398.7870   1427.26318     437.1602     398.7870
   1427.24792     439.5783     400.6657   1427.24792     439.5783     400.6657
   1427.23267     442.2940     403.3621   1427.23267     442.2940     403.3621
   1427.21741     444.0146     405.9154   1427.21741     444.0146     405.9154
   1427.20215     446.2942     407.7684   1427.20215     446.2942     407.7684
   1427.18689     449.6781     409.3905   1427.18689     449.6781     409.3905
   1427.17163     452.3276     412.4363   1427.17163     452.3276     412.4363
   1427.15637     454.4374     414.1577   1427.15637     454.4374     414.1577
   1427.14111     457.3376     416.5836   1427.14111     457.3376     416.5836
   1427.12585     459.7669     419.0029   1427.12585     459.7669     419.0029
   1427.11060     462.7947     420.5438   1427.11060     462.7947     420.5438
   1427.09534     464.8329     422.9541   1427.09534     464.8329     422.9541
   1427.08008     467.4964     425.1025   1427.08008     467.4964     425.1025
   1427.06482     471.3660     427.7838   1427.06482     471.3660     427.7838
   1427.04956     473.1105     430.4308   1427.04956     473.1105     430.4308
   1427.03430     476.2180     432.4442   1427.03430     476.2180     432.4442
   1427.01904     479.2677     434.1457   1427.01904     479.2677     434.1457
   1427.00378     481.9538     436.9787   1427.00378     481.9538     436.9787
   1426.98853     484.7183     438.1953   1426.98853     484.7183     438.1953
   1426.97327     487.4308     440.5264   1426.97327     487.4308     440.5264
   1426.95801     490.7566     442.6482   1426.95801     490.7566     442.6482
   1426.94275     494.4380     444.4875   1426.94275     494.4380     444.4875
   1426.92749     496.0683     447.6172   1426.92749     496.0683     447.6172
   1426.91223     499.3192     449.3170   1426.91223     499.3192     449.3170
   1426.89697     502.8813     452.5135   1426.89697     502.8813     452.5135
   1426.88171     505.9497     453.5541   1426.88171     505.9497     453.5541
   1426.86646     509.0493     456.3893   1426.86646     509.0493     456.3893
   1426.85120     511.2600     458.6377   1426.85120     511.2600     458.6377
   1426.83594     515.3872     460.5835   1426.83594     515.3872     460.5835
   1426.82068     518.0525     463.0580   1426.82068     518.0525     463.0580
   1426.80542     521.7565     464.0965   1426.80542     521.7565     464.0965
   1426.79016     523.9595     466.5867   1426.79016     523.9595     466.5867
   1426.77490     526.7617     468.4113   1426.77490     526.7617     468.4113
   1426.75964     530.5779     471.4084   1426.75964     530.5779     471.4084
   1426.74438     533.7706     473.6871   1426.74438     533.7706     473.6871
   1426.72913     536.7223     474.8901   1426.72913     536.7223     474.8901
   1426.71387     540.2854     477.3952   1426.71387     540.2854     477.3952
   1426.69861     544.0869     479.1077   1426.69861     544.0869     479.1077
   1426.68335     545.9666     480.8933   1426.68335     545.9666     480.8933
   1426.66809     549.6798     483.4765   1426.66809     549.6798     483.4765
   1426.65283     551.8423     485.8403   1426.65283     551.8423     485.8403
   1426.63757     555.3090     486.7529   1426.63757     555.3090     486.7529
   1426.62231     560.3764     490.4125   1426.62231     560.3764     490.4125
   1426.60706     562.3029     491.1629   1426.60706     562.3029     491.1629
   1426.59180     565.0820     492.4044   1426.59180     565.0820     492.4044
   1426.57654     567.9815     495.2430   1426.57654     567.9815     495.2430
   1426.56128     571.7682     497.2609   1426.56128     571.7682     497.2609
   1426.54602     574.5038     498.7726   1426.54602     574.5038     498.7726
   1426.53076     578.0673     501.2717   1426.53076     578.0673     501.2717
   1426.51550     580.7719     503.1180   1426.51550     580.7719     503.1180
   1426.50024     583.9940     505.5883   1426.50024     583.9940     505.5883
   1426.48499     588.2092     506.3141   1426.48499     588.2092     506.3141
   1426.46973     591.6162     508.2330   1426.46973     591.6162     508.2330
   1426.45447     593.5267     510.4215   1426.45447     593.5267     510.4215
   1426.43921     596.5287     511.4348   1426.43921     596.5287     511.4348
   1426.42395     600.7974     513.8658   1426.42395     600.7974     513.8658
   1426.40869     602.5723     515.8713   1426.40869     602.5723     515.8713
   1426.39343     606.7496     517.9023   1426.39343     606.7496     517.9023
   1426.37817     609.0864     519.1864   1426.37817     609.0864     519.1864
   1426.36292     612.5690     520.9203   1426.36292     612.5690     520.9203
   1426.34766     615.5922     522.6200   1426.34766     615.5922     522.6200
   1426.33240     618.3250     523.9479   1426.33240     618.3250     523.9479
   1426.31714     620.5461     525.9824   1426.31714     620.5461     525.9824
   1426.30188     624.5308     527.7287   1426.30188     624.5308     527.7287
   1426.28662     626.8222     528.9211   1426.28662     626.8222     528.9211
   1426.27136     630.0071     531.0214   1426.27136     630.0071     531.0214
   1426.25610     633.6589     532.8954   1426.25610     633.6589     532.8954
   1426.24084     636.4993     534.0845   1426.24084     636.4993     534.0845
   1426.22559     638.6465     535.5319   1426.22559     638.6465     535.5319
   1426.21033     642.8539     537.3569   1426.21033     642.8539     537.3569
   1426.19507     645.1160     538.5297   1426.19507     645.1160     538.5297
   1426.17981     647.3793     540.6888   1426.17981     647.3793     540.6888
   1426.16455     649.5674     541.8699   1426.16455     649.5674     541.8699
   1426.14929     652.6321     543.1732   1426.14929     652.6321     543.1732
   1426.13403     656.1526     544.1552   1426.13403     656.1526     544.1552
   1426.11877     658.5056     545.1475   1426.11877     658.5056     545.1475
   1426.10352     662.0527     547.1090   1426.10352     662.0527     547.1090
   1426.08826     665.2616     549.1261   1426.08826     665.2616     549.1261
   1426.07300     667.4424     550.0664   1426.07300     667.4424     550.0664
   1426.05774     669.2028     551.8417   1426.05774     669.2028     551.8417
   1426.04248     672.9131     552.9297   1426.04248     672.9131     552.9297
   1426.02722     675.3736     554.0385   1426.02722     675.3736     554.0385
   1426.01196     676.7482     555.4672   1426.01196     676.7482     555.4672
   1425.99670     678.8604     557.1781   1425.99670     678.8604     557.1781
   1425.98145     683.1747     558.1370   1425.98145     683.1747     558.1370
   1425.96619     685.6871     558.8941   1425.96619     685.6871     558.8941
   1425.95093     687.8521     560.8516   1425.95093     687.8521     560.8516
   1425.93567     690.2548     562.0208   1425.93567     690.2548     562.0208
   1425.92041     692.0729     562.8279   1425.92041     692.0729     562.8279
   1425.90515     694.3654     564.4158   1425.90515     694.3654     564.4158
   1425.88989     697.2795     565.1592   1425.88989     697.2795     565.1592
   1425.87463     699.7673     566.7012   1425.87463     699.7673     566.7012
   1425.85938     701.8047     568.4101   1425.85938     701.8047     568.4101
   1425.84412     705.0034     569.4600   1425.84412     705.0034     569.4600
   1425.82886     706.7068     570.9647   1425.82886     706.7068     570.9647
   1425.81360     709.6699     571.5173   1425.81360     709.6699     571.5173
   1425.79834     711.9034     572.1026   1425.79834     711.9034     572.1026
   1425.78308     712.4247     574.6360   1425.78308     712.4247     574.6360
   1425.76782     715.3599     575.1774   1425.76782     715.3599     575.1774
   1425.75256     716.6539     575.7012   1425.75256     716.6539     575.7012
   1425.73730     718.9619     576.0717   1425.73730     718.9619     576.0717
   1425.72205     721.0184     577.6906   1425.72205     721.0184     577.6906
   1425.70679     722.6589     578.7936   1425.70679     722.6589     578.7936
   1425.69153     724.0115     579.3569   1425.69153     724.0115     579.3569
   1425.67627     727.8801     580.3971   1425.67627     727.8801     580.3971
   1425.66101     728.1133     581.4368   1425.66101     728.1133     581.4368
   1425.64575     730.2070     582.2554   1425.64575     730.2070     582.2554
   1425.63049     733.9684     582.5209   1425.63049     733.9684     582.5209
   1425.61523     734.9040     583.2643   1425.61523     734.9040     583.2643
   1425.59998     735.9572     585.2958   1425.59998     735.9572     585.2958
   1425.58472     737.4244     585.8245   1425.58472     737.4244     585.8245
   1425.56946     738.7846     586.7737   1425.56946     738.7846     586.7737
   1425.55420     741.1357     588.1298   1425.55420     741.1357     588.1298
   1425.53894     741.5313     587.7051   1425.53894     741.5313     587.7051
   1425.52368     743.7432     589.0626   1425.52368     743.7432     589.0626
   1425.50842     744.4876     590.0691   1425.50842     744.4876     590.0691
   1425.49316     747.3102     590.4082   1425.49316     747.3102     590.4082
   1425.47791     748.9464     590.8793   1425.47791     748.9464     590.8793
   1425.46265     750.9409     592.2558   1425.46265     750.9409     592.2558
   1425.44739     752.3869     593.5231   1425.44739     752.3869     593.5231
   1425.43213     752.5468     593.1920   1425.43213     752.5468     593.1920
   1425.41687     754.2725     593.6827   1425.41687     754.2725     593.6827
   1425.40161     755.5850     594.8693   1425.40161     755.5850     594.8693
   1425.38635     757.4688     596.0374   1425.38635     757.4688     596.0374
   1425.37109     757.3079     595.5289   1425.37109     757.3079     595.5289
   1425.35583     759.5720     596.7020   1425.35583     759.5720     596.7020
   1425.34058     761.3005     598.1650   1425.34058     761.3005     598.1650
   1425.32532     762.1064     597.6641   1425.32532     762.1064     597.6641
   1425.31006     763.1040     598.2795   1425.31006     763.1040     598.2795
   1425.29480     764.0442     598.9999   1425.29480     764.0442     598.9999
   1425.27954     765.8873     599.5785   1425.27954     765.8873     599.5785
   1425.26428     766.8477     600.1202   1425.26428     766.8477     600.1202
   1425.24902     767.1437     601.3125   1425.24902     767.1437     601.3125
   1425.23376     768.5547     600.5644   1425.23376     768.5547     600.5644
   1425.21851     768.8211     601.4584   1425.21851     768.8211     601.4584
   1425.20325     769.6483     602.1972   1425.20325     769.6483     602.1972
   1425.18799     771.9891     603.9646   1425.18799     771.9891     603.9646
   1425.17273     771.8724     603.8550   1425.17273     771.8724     603.8550
   1425.15747     772.6860     602.9304   1425.15747     772.6860     602.9304
   1425.14221     774.1613     604.6920   1425.14221     774.1613     604.6920
   1425.12695     775.0103     604.7518   1425.12695     775.0103     604.7518
   1425.11169     774.9030     605.2654   1425.11169     774.9030     605.2654
   1425.09644     775.7155     605.6721   1425.09644     775.7155     605.6721
   1425.08118     775.4690     606.3505   1425.08118     775.4690     606.3505
   1425.06592     777.4314     606.3745   1425.06592     777.4314     606.3745
   1425.05066     778.0508     606.8328   1425.05066     778.0508     606.8328
   1425.03540     777.5187     607.7291   1425.03540     777.5187     607.7291
   1425.02014     778.4752     606.8936   1425.02014     778.4752     606.8936
   1425.00488     780.1235     606.9177   1425.00488     780.1235     606.9177
   1424.98962     778.8906     607.6208   1424.98962     778.8906     607.6208
   1424.97437     780.1456     607.9976   1424.97437     780.1456     607.9976
   1424.95911     780.4601     608.6393   1424.95911     780.4601     608.6393
   1424.94385     780.3616     609.8103   1424.94385     780.3616     609.8103
   1424.92859     781.0086     609.3063   1424.92859     781.0086     609.3063
   1424.91333     782.5447     609.0900   1424.91333     782.5447     609.0900
   1424.89807     782.1807     610.0281   1424.89807     782.1807     610.0281
   1424.88281     781.8941     610.8566   1424.88281     781.8941     610.8566
   1424.86755     781.3014     610.1355   1424.86755     781.3014     610.1355
   1424.85229     782.7741     611.2191   1424.85229     782.7741     611.2191
   1424.83704     782.7391     610.8209   1424.83704     782.7391     610.8209
   1424.82178     784.5092     611.3679   1424.82178     784.5092     611.3679
   1424.80652     784.1917     611.2170   1424.80652     784.1917     611.2170
   1424.79126     782.3715     610.5560   1424.79126     782.3715     610.5560
   1424.77600     783.6024     612.3677   1424.77600     783.6024     612.3677
   1424.76074     783.9637     613.1896   1424.76074     783.9637     613.1896
   1424.74548     784.2090     612.3019   1424.74548     784.2090     612.3019
   1424.73022     783.5325     612.6946   1424.73022     783.5325     612.6946
   1424.71497     784.7878     613.1200   1424.71497     784.7878     613.1200
   1424.69971     782.9245     613.1019   1424.69971     782.9245     613.1019
   1424.68445     783.0582     612.9398   1424.68445     783.0582     612.9398
   1424.66919     782.6226     613.2628   1424.66919     782.6226     613.2628
   1424.65393     784.5183     612.7000   1424.65393     784.5183     612.7000
   1424.63867     782.9675     612.8735   1424.63867     782.9675     612.8735
   1424.62341     782.7615     614.2469   1424.62341     782.7615     614.2469
   1424.60815     782.9142     612.7247   1424.60815     782.9142     612.7247
   1424.59290     783.1761     613.8253   1424.59290     783.1761     613.8253
   1424.57764     783.6865     613.3173   1424.57764     783.6865     613.3173
   1424.56238     783.7208     613.0319   1424.56238     783.7208     613.0319
   1424.54712     783.4441     614.7314   1424.54712     783.4441     614.7314
   1424.53186     783.8392     613.8157   1424.53186     783.8392     613.8157
   1424.51660     783.3386     613.7054   1424.51660     783.3386     613.7054
   1424.50134     781.1462     613.3937   1424.50134     781.1462     613.3937
   1424.48608     782.2062     613.2989   1424.48608     782.2062     613.2989
   1424.47083     781.3244     614.7606   1424.47083     781.3244     614.7606
   1424.45557     781.6127     613.5689   1424.45557     781.6127     613.5689
   1424.44031     781.6538     614.3575   1424.44031     781.6538     614.3575
   1424.42505     781.1088     614.3181   1424.42505     781.1088     614.3181
   1424.40979     780.4016     614.0279   1424.40979     780.4016     614.0279
   1424.39453     779.4142     614.1936   1424.39453     779.4142     614.1936
   1424.37927     780.6830     612.8396   1424.37927     780.6830     612.8396
   1424.36401     778.8384     614.3091   1424.36401     778.8384     614.3091
   1424.34875     780.0168     613.8878   1424.34875     780.0168     613.8878
   1424.33350     777.5100     614.2054   1424.33350     777.5100     614.2054
   1424.31824     779.0217     612.8552   1424.31824     779.0217     612.8552
   1424.30298     778.5925     613.9682   1424.30298     778.5925     613.9682
   1424.28772     779.4088     614.1666   1424.28772     779.4088     614.1666
   1424.27246     778.4443     614.2448   1424.27246     778.4443     614.2448
   1424.25720     775.6089     613.4729   1424.25720     775.6089     613.4729
   1424.24194     777.5422     614.0655   1424.24194     777.5422     614.0655
   1424.22668     775.6891     613.2704   1424.22668     775.6891     613.2704
   1424.21143     775.3448     613.3642   1424.21143     775.3448     613.3642
   1424.19617     775.4297     613.4694   1424.19617     775.4297     613.4694
   1424.18091     775.6515     612.9891   1424.18091     775.6515     612.9891
   1424.16565     773.5457     613.1321   1424.16565     773.5457     613.1321
   1424.15039     773.7003     612.5380   1424.15039     773.7003     612.5380
   1424.13513     772.2130     613.0346   1424.13513     772.2130     613.0346
   1424.11987     773.4434     612.1534   1424.11987     773.4434     612.1534
   1424.10461     771.5206     613.3691   1424.10461     771.5206     613.3691
   1424.08936     772.2191     612.7065   1424.08936     772.2191     612.7065
   1424.07410     772.1825     613.1326   1424.07410     772.1825     613.1326
   1424.05884     770.1970     612.0106   1424.05884     770.1970     612.0106
   1424.04358     770.5812     611.7376   1424.04358     770.5812     611.7376
   1424.02832     770.6946     612.1188   1424.02832     770.6946     612.1188
   1424.01306     769.5485     611.2402   1424.01306     769.5485     611.2402
   1423.99780     769.0055     611.8290   1423.99780     769.0055     611.8290
   1423.98254     768.5464     610.1226   1423.98254     768.5464     610.1226
   1423.96729     768.1329     610.7590   1423.96729     768.1329     610.7590
   1423.95203     766.7516     610.2968   1423.95203     766.7516     610.2968
   1423.93677     766.5272     610.7168   1423.93677     766.5272     610.7168
   1423.92151     765.4336     610.6736   1423.92151     765.4336     610.6736
   1423.90625     766.1416     610.1581   1423.90625     766.1416     610.1581
   1423.89099     764.7798     610.0079   1423.89099     764.7798     610.0079
   1423.87573     764.7885     609.1894   1423.87573     764.7885     609.1894
   1423.86047     764.0053     609.4302   1423.86047     764.0053     609.4302
   1423.84521     762.9589     609.0072   1423.84521     762.9589     609.0072
   1423.82996     763.7604     608.4048   1423.82996     763.7604     608.4048
   1423.81470     761.9471     609.1826   1423.81470     761.9471     609.1826
   1423.79944     762.6364     607.6999   1423.79944     762.6364     607.6999
   1423.78418     760.4607     607.6292   1423.78418     760.4607     607.6292
   1423.76892     761.8909     607.0187   1423.76892     761.8909     607.0187
   1423.75366     760.1616     607.1733   1423.75366     760.1616     607.1733
   1423.73840     759.4116     607.3701   1423.73840     759.4116     607.3701
   1423.72314     758.4482     606.1781   1423.72314     758.4482     606.1781
   1423.70789     757.5008     605.4675   1423.70789     757.5008     605.4675
   1423.69263     756.6297     606.2376   1423.69263     756.6297     606.2376
   1423.67737     756.2607     604.9271   1423.67737     756.2607     604.9271
   1423.66211     755.7311     604.6518   1423.66211     755.7311     604.6518
   1423.64685     755.3904     604.4224   1423.64685     755.3904     604.4224
   1423.63159     755.2092     604.0695   1423.63159     755.2092     604.0695
   1423.61633     755.5096     604.7496   1423.61633     755.5096     604.7496
   1423.60107     754.3512     602.8745   1423.60107     754.3512     602.8745
   1423.58582     753.9204     602.7932   1423.58582     753.9204     602.7932
   1423.57056     752.8112     603.4827   1423.57056     752.8112     603.4827
   1423.55530     751.6110     602.6044   1423.55530     751.6110     602.6044
   1423.54004     751.3420     601.9668   1423.54004     751.3420     601.9668
   1423.52478     751.5787     601.7859   1423.52478     751.5787     601.7859
   1423.50952     751.2261     600.2664   1423.50952     751.2261     600.2664
   1423.49426     750.1150     600.9365   1423.49426     750.1150     600.9365
   1423.47900     749.2137     600.1045   1423.47900     749.2137     600.1045
   1423.46375     748.8695     599.1845   1423.46375     748.8695     599.1845
   1423.44849     749.1694     598.7212   1423.44849     749.1694     598.7212
   1423.43323     747.4258     599.3619   1423.43323     747.4258     599.3619
   1423.41797     747.2722     598.1156   1423.41797     747.2722     598.1156
   1423.40271     746.7260     596.9328   1423.40271     746.7260     596.9328
   1423.38745     746.6334     597.0201   1423.38745     746.6334     597.0201
   1423.37219     746.6620     596.4656   1423.37219     746.6620     596.4656
   1423.35693     745.3064     595.7165   1423.35693     745.3064     595.7165
   1423.34167     744.7740     595.2956   1423.34167     744.7740     595.2956
   1423.32642     744.2819     595.5192   1423.32642     744.2819     595.5192
   1423.31116     743.7535     593.7571   1423.31116     743.7535     593.7571
   1423.29590     745.2003     593.5540   1423.29590     745.2003     593.5540
   1423.28064     742.3602     593.6468   1423.28064     742.3602     593.6468
   1423.26538     741.3464     593.1428   1423.26538     741.3464     593.1428
   1423.25012     743.4698     592.0939   1423.25012     743.4698     592.0939
   1423.23486     741.7589     591.1354   1423.23486     741.7589     591.1354
   1423.21960     741.6183     591.1119   1423.21960     741.6183     591.1119
   1423.20435     739.1853     590.0266   1423.20435     739.1853     590.0266
   1423.18909     739.5224     589.3768   1423.18909     739.5224     589.3768
   1423.17383     741.1412     589.1850   1423.17383     741.1412     589.1850
   1423.15857     739.2843     589.4042   1423.15857     739.2843     589.4042
   1423.14331     738.7373     587.7399   1423.14331     738.7373     587.7399
   1423.12805     737.6985     586.6045   1423.12805     737.6985     586.6045
   1423.11279     737.9846     586.2108   1423.11279     737.9846     586.2108
   1423.09753     737.0920     586.4926   1423.09753     737.0920     586.4926
   1423.08228     736.8183     585.4000   1423.08228     736.8183     585.4000
   1423.06702     736.7358     583.7741   1423.06702     736.7358     583.7741
   1423.05176     736.1238     583.1255   1423.05176     736.1238     583.1255
   1423.03650     735.8563     582.9350   1423.03650     735.8563     582.9350
   1423.02124     736.1643     582.2521   1423.02124     736.1643     582.2521
   1423.00598     734.4218     581.1713   1423.00598     734.4218     581.1713
   1422.99072     736.0208     581.1136   1422.99072     736.0208     581.1136
   1422.97546     734.6271     580.4509   1422.97546     734.6271     580.4509
   1422.96021     733.6170     580.1127   1422.96021     733.6170     580.1127
   1422.94495     733.8087     578.9550   1422.94495     733.8087     578.9550
   1422.92969     733.6288     578.1019   1422.92969     733.6288     578.1019
   1422.91443     732.8121     576.9189   1422.91443     732.8121     576.9189
   1422.89917     732.0068     576.2856   1422.89917     732.0068     576.2856
   1422.88391     732.1178     576.3950   1422.88391     732.1178     576.3950
   1422.86865     732.4368     576.0262   1422.86865     732.4368     576.0262
   1422.85339     731.4453     574.0054   1422.85339     731.4453     574.0054
   1422.83813     730.1277     572.9654   1422.83813     730.1277     572.9654
   1422.82288     730.6374     572.5081   1422.82288     730.6374     572.5081
   1422.80762     730.4150     572.2050   1422.80762     730.4150     572.2050
   1422.79236     731.3694     571.4442   1422.79236     731.3694     571.4442
   1422.77710     729.3234     570.5240   1422.77710     729.3234     570.5240
   1422.76184     728.1605     570.1810   1422.76184     728.1605     570.1810
   1422.74658     729.6924     568.4901   1422.74658     729.6924     568.4901
   1422.73132     729.6227     567.4913   1422.73132     729.6227     567.4913
   1422.71606     729.6813     567.7172   1422.71606     729.6813     567.7172
   1422.70081     728.2416     566.1823   1422.70081     728.2416     566.1823
   1422.68555     728.5238     565.1141   1422.68555     728.5238     565.1141
   1422.67029     728.2983     564.9191   1422.67029     728.2983     564.9191
   1422.65503     726.8984     564.7089   1422.65503     726.8984     564.7089
   1422.63977     728.1088     563.2266   1422.63977     728.1088     563.2266
   1422.62451     726.0046     561.5113   1422.62451     726.0046     561.5113
   1422.60925     726.5919     561.3835   1422.60925     726.5919     561.3835
   1422.59399     726.7875     561.6016   1422.59399     726.7875     561.6016
   1422.57874     725.4995     558.7512   1422.57874     725.4995     558.7512
   1422.56348     726.0171     558.8510   1422.56348     726.0171     558.8510
   1422.54822     725.3322     558.2531   1422.54822     725.3322     558.2531
   1422.53296     725.7208     556.3492   1422.53296     725.7208     556.3492
   1422.51770     725.4774     555.8184   1422.51770     725.4774     555.8184
   1422.50244     725.4299     555.0554   1422.50244     725.4299     555.0554
   1422.48718     724.7389     554.0743   1422.48718     724.7389     554.0743
   1422.47192     725.0041     553.5007   1422.47192     725.0041     553.5007
   1422.45667     725.2126     552.6479   1422.45667     725.2126     552.6479
   1422.44141     724.4142     551.7261   1422.44141     724.4142     551.7261
   1422.42615     723.6197     551.4630   1422.42615     723.6197     551.4630
   1422.41089     723.4407     550.6286   1422.41089     723.4407     550.6286
   1422.39563     723.3715     549.1000   1422.39563     723.3715     549.1000
   1422.38037     723.2953     547.5341   1422.38037     723.2953     547.5341
   1422.36511     722.7812     547.3011   1422.36511     722.7812     547.3011
   1422.34985     722.6503     546.4222   1422.34985     722.6503     546.4222
   1422.33459     723.4423     544.4963   1422.33459     723.4423     544.4963
   1422.31934     722.5808     544.8294   1422.31934     722.5808     544.8294
   1422.30408     723.3121     542.1752   1422.30408     723.3121     542.1752
   1422.28882     722.2764     542.2562   1422.28882     722.2764     542.2562
   1422.27356     723.1086     541.3242   1422.27356     723.1086     541.3242
   1422.25830     721.6381     540.9442   1422.25830     721.6381     540.9442
   1422.24304     722.7719     540.9650   1422.24304     722.7719     540.9650
   1422.22778     722.1562     538.9490   1422.22778     722.1562     538.9490
   1422.21252     723.0128     537.1892   1422.21252     723.0128     537.1892
   1422.19727     722.7587     536.0659   1422.19727     722.7587     536.0659
   1422.18201     722.8193     536.1077   1422.18201     722.8193     536.1077
   1422.16675     721.6894     534.1284   1422.16675     721.6894     534.1284
   1422.15149     721.5338     533.8727   1422.15149     721.5338     533.8727
   1422.13623     721.2099     532.0077   1422.13623     721.2099     532.0077
   1422.12097     722.2836     530.8831   1422.12097     722.2836     530.8831
   1422.10571     720.8594     530.3101   1422.10571     720.8594     530.3101
   1422.09045     720.7418     529.1926   1422.09045     720.7418     529.1926
   1422.07520     720.8179     529.1264   1422.07520     720.8179     529.1264
   1422.05994     720.9539     527.4591   1422.05994     720.9539     527.4591
   1422.04468     721.0834     527.1069   1422.04468     721.0834     527.1069
   1422.02942     720.2010     525.2465   1422.02942     720.2010     525.2465
   1422.01416     721.5545     524.6381   1422.01416     721.5545     524.6381
   1421.99890     720.1372     523.2579   1421.99890     720.1372     523.2579
   1421.98364     720.3799     522.5613   1421.98364     720.3799     522.5613
   1421.96838     719.3683     520.8036   1421.96838     719.3683     520.8036
   1421.95312     719.9238     519.7081   1421.95312     719.9238     519.7081
   1421.93787     719.2302     519.2966   1421.93787     719.2302     519.2966
   1421.92261     719.2551     518.0083   1421.92261     719.2551     518.0083
   1421.90735     720.1847     516.8943   1421.90735     720.1847     516.8943
   1421.89209     720.6176     515.9698   1421.89209     720.6176     515.9698
   1421.87683     719.9736     514.9902   1421.87683     719.9736     514.9902
   1421.86157     719.7847     514.7953   1421.86157     719.7847     514.7953
   1421.84631     719.3967     513.1329   1421.84631     719.3967     513.1329
   1421.83105     718.9275     512.2603   1421.83105     718.9275     512.2603
   1421.81580     718.1475     511.1484   1421.81580     718.1475     511.1484
   1421.80054     718.9197     509.5926   1421.80054     718.9197     509.5926
   1421.78528     719.3090     508.5346   1421.78528     719.3090     508.5346
   1421.77002     718.0943     507.2837   1421.77002     718.0943     507.2837
   1421.75476     719.0593     507.0854   1421.75476     719.0593     507.0854
   1421.73950     719.5267     505.6762   1421.73950     719.5267     505.6762
   1421.72424     718.1354     503.8033   1421.72424     718.1354     503.8033
   1421.70898     718.4478     503.1426   1421.70898     718.4478     503.1426
   1421.69373     718.1077     502.6962   1421.69373     718.1077     502.6962
   1421.67847     718.3672     501.3471   1421.67847     718.3672     501.3471
   1421.66321     717.6332     500.5066   1421.66321     717.6332     500.5066
   1421.64795     718.0878     499.1459   1421.64795     718.0878     499.1459
   1421.63269     717.4010     497.6250   1421.63269     717.4010     497.6250
   1421.61743     717.9871     498.1674   1421.61743     717.9871     498.1674
   1421.60217     718.1725     496.1821   1421.60217     718.1725     496.1821
   1421.58691     718.4351     494.7720   1421.58691     718.4351     494.7720
   1421.57166     718.7634     494.2416   1421.57166     718.7634     494.2416
   1421.55640     717.7708     492.7597   1421.55640     717.7708     492.7597
   1421.54114     718.3745     491.4651   1421.54114     718.3745     491.4651
   1421.52588     718.3102     490.4782   1421.52588     718.3102     490.4782
   1421.51062     716.6552     488.9445   1421.51062     716.6552     488.9445
   1421.49536     717.4958     488.6523   1421.49536     717.4958     488.6523
   1421.48010     717.2899     488.0444   1421.48010     717.2899     488.0444
   1421.46484     717.2638     486.7876   1421.46484     717.2638     486.7876
   1421.44958     716.7302     485.9055   1421.44958     716.7302     485.9055
   1421.43433     716.7589     484.4250   1421.43433     716.7589     484.4250
   1421.41907     715.7498     483.6066   1421.41907     715.7498     483.6066
   1421.40381     714.8896     482.1886   1421.40381     714.8896     482.1886
   1421.38855     715.3439     481.6698   1421.38855     715.3439     481.6698
   1421.37329     715.0680     479.8310   1421.37329     715.0680     479.8310
   1421.35803     716.3886     478.4412   1421.35803     716.3886     478.4412
   1421.34277     715.6324     477.7323   1421.34277     715.6324     477.7323
   1421.32751     716.1658     477.1978   1421.32751     716.1658     477.1978
   1421.31226     716.6212     476.1090   1421.31226     716.6212     476.1090
   1421.29700     716.0014     475.0465   1421.29700     716.0014     475.0465
   1421.28174     715.3210     474.2591   1421.28174     715.3210     474.2591
   1421.26648     715.8483     472.1169   1421.26648     715.8483     472.1169
   1421.25122     715.3589     471.8918   1421.25122     715.3589     471.8918
   1421.23596     714.6470     470.5360   1421.23596     714.6470     470.5360
   1421.22070     715.3662     469.4654   1421.22070     715.3662     469.4654
   1421.20544     713.9824     467.9987   1421.20544     713.9824     467.9987
   1421.19019     714.5778     467.8611   1421.19019     714.5778     467.8611
   1421.17493     714.2264     466.6973   1421.17493     714.2264     466.6973
   1421.15967     714.5709     466.0162   1421.15967     714.5709     466.0162
   1421.14441     714.7042     464.8047   1421.14441     714.7042     464.8047
   1421.12915     713.7790     463.2342   1421.12915     713.7790     463.2342
   1421.11389     713.8523     462.7216   1421.11389     713.8523     462.7216
   1421.09863     714.5058     461.2772   1421.09863     714.5058     461.2772
   1421.08337     715.1597     460.2376   1421.08337     715.1597     460.2376
   1421.06812     714.0788     459.2189   1421.06812     714.0788     459.2189
   1421.05286     714.2288     458.4535   1421.05286     714.2288     458.4535
   1421.03760     715.2922     458.0363   1421.03760     715.2922     458.0363
   1421.02234     715.7377     457.0930   1421.02234     715.7377     457.0930
   1421.00708     714.3819     457.6050   1421.00708     714.3819     457.6050
   1420.99182     715.3310     456.3172   1420.99182     715.3310     456.3172
   1420.97656     717.0302     455.7797   1420.97656     717.0302     455.7797
   1420.96130     718.7659     456.1949   1420.96130     718.7659     456.1949
   1420.94604     720.7914     456.3282   1420.94604     720.7914     456.3282
   1420.93079     721.5421     456.3046   1420.93079     721.5421     456.3046
   1420.91553     724.8456     456.1319   1420.91553     724.8456     456.1319
   1420.90027     725.4566     457.3561   1420.90027     725.4566     457.3561
   1420.88501     728.7455     457.7596   1420.88501     728.7455     457.7596
   1420.86975     728.5243     456.7536   1420.86975     728.5243     456.7536
   1420.85449     730.6152     456.7836   1420.85449     730.6152     456.7836
   1420.83923     730.9307     457.1444   1420.83923     730.9307     457.1444
   1420.82397     736.8727     458.9931   1420.82397     736.8727     458.9931
   1420.80872     744.0430     462.3330   1420.80872     744.0430     462.3330
   1420.79346     757.2903     469.1599   1420.79346     757.2903     469.1599
   1420.77820     776.1795     479.0951   1420.77820     776.1795     479.0951
   1420.76294     801.5430     493.6078   1420.76294     801.5430     493.6078
   1420.74768     831.8383     511.7285   1420.74768     831.8383     511.7285
   1420.73242     874.7500     536.0788   1420.73242     874.7500     536.0788
   1420.71716     919.2188     561.8629   1420.71716     919.2188     561.8629
   1420.70190    1011.3461     616.2465   1420.70190    1011.3461     616.2465
   1420.68665    1157.2954     700.9717   1420.68665    1157.2954     700.9717
   1420.67139    1390.2754     840.3545   1420.67139    1390.2754     840.3545
   1420.65613    1739.7970    1043.8134   1420.65613    1739.7970    1043.8134
   1420.64087    1762.8977    1057.2706   1420.64087    1762.8977    1057.2706
   1420.62561    1582.5457     948.6410   1420.62561    1582.5457     948.6410
   1420.61035    1598.3983     956.4338   1420.61035    1598.3983     956.4338
   1420.59509    1779.5079    1059.8492   1420.59509    1779.5079    1059.8492
   1420.57983    1874.6538    1117.3165   1420.57983    1874.6538    1117.3165
   1420.56458    2094.2612    1243.7341   1420.56458    2094.2612    1243.7341
   1420.54932    2331.6204    1377.3927   1420.54932    2331.6204    1377.3927
   1420.53406    2404.4456    1418.2091   1420.53406    2404.4456    1418.2091
   1420.51880    2138.0356    1261.5646   1420.51880    2138.0356    1261.5646
   1420.50354    1756.6531    1035.0211   1420.50354    1756.6531    1035.0211
   1420.48828    1494.6747     882.2867   1420.48828    1494.6747     882.2867
   1420.47302    1424.0482     836.3464   1420.47302    1424.0482     836.3464
   1420.45776    1413.6821     833.1047   1420.45776    1413.6821     833.1047
   1420.44250    1402.6864     823.9124   1420.44250    1402.6864     823.9124
   1420.42725    1680.7101     983.1542   1420.42725    1680.7101     983.1542
   1420.41199    1967.1658    1146.8712   1420.41199    1967.1658    1146.8712
   1420.39673    1980.7875    1152.2645   1420.39673    1980.7875    1152.2645
   1420.38147    1792.8453    1039.8192   1420.38147    1792.8453    1039.8192
   1420.36621    1495.7859     867.0787   1420.36621    1495.7859     867.0787
   1420.35095    1058.1371     617.6557   1420.35095    1058.1371     617.6557
   1420.33569     859.7693     501.6463   1420.33569     859.7693     501.6463
   1420.32043     791.7243     462.5488   1420.32043     791.7243     462.5488
   1420.30518     758.7989     443.1933   1420.30518     758.7989     443.1933
   1420.28992     737.9721     432.0708   1420.28992     737.9721     432.0708
   1420.27466     727.2439     424.1799   1420.27466     727.2439     424.1799
   1420.25940     721.2579     421.2791   1420.25940     721.2579     421.2791
   1420.24414     717.1018     417.5248   1420.24414     717.1018     417.5248
   1420.22888     714.9501     415.7239   1420.22888     714.9501     415.7239
   1420.21362     712.9120     413.2318   1420.21362     712.9120     413.2318
   1420.19836     711.4901     412.0665   1420.19836     711.4901     412.0665
   1420.18311     709.4409     410.5941   1420.18311     709.4409     410.5941
   1420.16785     707.9039     409.3815   1420.16785     707.9039     409.3815
   1420.15259     707.3821     408.4731   1420.15259     707.3821     408.4731
   1420.13733     706.7758     406.8648   1420.13733     706.7758     406.8648
   1420.12207     705.9719     405.9171   1420.12207     705.9719     405.9171
   1420.10681     705.7359     405.6135   1420.10681     705.7359     405.6135
   1420.09155     704.6887     403.9476   1420.09155     704.6887     403.9476
   1420.07629     703.8265     403.7036   1420.07629     703.8265     403.7036
   1420.06104     702.6210     402.7863   1420.06104     702.6210     402.7863
   1420.04578     703.2565     402.2062   1420.04578     703.2565     402.2062
   1420.03052     702.7250     401.5961   1420.03052     702.7250     401.5961
   1420.01526     703.5869     402.1547   1420.01526     703.5869     402.1547
   1420.00000     704.4482     402.4945   1420.00000     704.4482     402.4945
   1419.98474     705.3096     402.8341   1419.98474     705.3096     402.8341
   1419.96948     705.3993     400.2176   1419.96948     705.3993     400.2176
   1419.95422     701.3304     398.8939   1419.95422     701.3304     398.8939
   1419.93896     701.5522     397.6923   1419.93896     701.5522     397.6923
   1419.92371     702.0759     397.2253   1419.92371     702.0759     397.2253
   1419.90845     702.4176     396.1141   1419.90845     702.4176     396.1141
   1419.89319     701.3478     395.9096   1419.89319     701.3478     395.9096
   1419.87793     702.1829     395.6554   1419.87793     702.1829     395.6554
   1419.86267     701.9235     395.6438   1419.86267     701.9235     395.6438
   1419.84741     701.6321     395.0688   1419.84741     701.6321     395.0688
   1419.83215     701.9829     394.9460   1419.83215     701.9829     394.9460
   1419.81689     701.9979     393.9426   1419.81689     701.9979     393.9426
   1419.80164     703.4780     394.0452   1419.80164     703.4780     394.0452
   1419.78638     702.6927     393.4070   1419.78638     702.6927     393.4070
   1419.77112     702.7887     393.0373   1419.77112     702.7887     393.0373
   1419.75586     702.6159     392.4188   1419.75586     702.6159     392.4188
   1419.74060     703.4877     391.7788   1419.74060     703.4877     391.7788
   1419.72534     703.0094     392.0267   1419.72534     703.0094     392.0267
   1419.71008     703.9445     392.1897   1419.71008     703.9445     392.1897
   1419.69482     703.4835     392.1766   1419.69482     703.4835     392.1766
   1419.67957     702.8455     391.5329   1419.67957     702.8455     391.5329
   1419.66431     703.4639     390.6834   1419.66431     703.4639     390.6834
   1419.64905     704.9075     390.0471   1419.64905     704.9075     390.0471
   1419.63379     704.4946     390.3582   1419.63379     704.4946     390.3582
   1419.61853     705.2432     390.3351   1419.61853     705.2432     390.3351
   1419.60327     703.5550     389.6700   1419.60327     703.5550     389.6700
   1419.58801     704.6804     390.0414   1419.58801     704.6804     390.0414
   1419.57275     704.8861     389.6792   1419.57275     704.8861     389.6792
   1419.55750     706.1964     389.2609   1419.55750     706.1964     389.2609
   1419.54224     704.9610     388.6921   1419.54224     704.9610     388.6921
   1419.52698     706.3875     388.3702   1419.52698     706.3875     388.3702
   1419.51172     705.3842     389.3519   1419.51172     705.3842     389.3519
   1419.49646     706.9384     388.2224   1419.49646     706.9384     388.2224
   1419.48120     707.2523     388.6648   1419.48120     707.2523     388.6648
   1419.46594     707.4558     388.6169   1419.46594     707.4558     388.6169
   1419.45068     706.5498     388.1169   1419.45068     706.5498     388.1169
   1419.43542     707.6544     388.5067   1419.43542     707.6544     388.5067
   1419.42017     707.7820     388.2978   1419.42017     707.7820     388.2978
   1419.40491     708.3431     387.7570   1419.40491     708.3431     387.7570
   1419.38965     709.0770     387.6259   1419.38965     709.0770     387.6259
   1419.37439     708.4292     387.4545   1419.37439     708.4292     387.4545
   1419.35913     709.1205     387.9488   1419.35913     709.1205     387.9488
   1419.34387     710.1629     387.7006   1419.34387     710.1629     387.7006
   1419.32861     710.4547     387.0258   1419.32861     710.4547     387.0258
   1419.31335     709.9843     387.2318   1419.31335     709.9843     387.2318
   1419.29810     709.4930     387.3687   1419.29810     709.4930     387.3687
   1419.28284     710.2594     388.1211   1419.28284     710.2594     388.1211
   1419.26758     711.1929     388.0783   1419.26758     711.1929     388.0783
   1419.25232     712.0743     387.8654   1419.25232     712.0743     387.8654
   1419.23706     712.2236     387.4508   1419.23706     712.2236     387.4508
   1419.22180     712.5330     387.9366   1419.22180     712.5330     387.9366
   1419.20654     712.8428     387.4796   1419.20654     712.8428     387.4796
   1419.19128     713.1431     388.2048   1419.19128     713.1431     388.2048
   1419.17603     713.6231     387.9706   1419.17603     713.6231     387.9706
   1419.16077     714.2358     388.1879   1419.16077     714.2358     388.1879
   1419.14551     714.2092     388.0004   1419.14551     714.2092     388.0004
   1419.13025     715.9366     388.0394   1419.13025     715.9366     388.0394
   1419.11499     715.7739     388.4243   1419.11499     715.7739     388.4243
   1419.09973     716.4587     387.9570   1419.09973     716.4587     387.9570
   1419.08447     715.7509     388.3939   1419.08447     715.7509     388.3939
   1419.06921     717.3257     388.7271   1419.06921     717.3257     388.7271
   1419.05396     718.2712     388.4553   1419.05396     718.2712     388.4553
   1419.03870     718.1224     389.1292   1419.03870     718.1224     389.1292
   1419.02344     718.6788     389.3063   1419.02344     718.6788     389.3063
   1419.00818     718.5581     389.5013   1419.00818     718.5581     389.5013
   1418.99292     718.7189     389.6039   1418.99292     718.7189     389.6039
   1418.97766     720.9258     389.8284   1418.97766     720.9258     389.8284
   1418.96240     720.8769     390.0925   1418.96240     720.8769     390.0925
   1418.94714     721.8275     390.7582   1418.94714     721.8275     390.7582
   1418.93188     721.4371     390.6763   1418.93188     721.4371     390.6763
   1418.91663     723.1511     390.8844   1418.91663     723.1511     390.8844
   1418.90137     723.8093     390.7647   1418.90137     723.8093     390.7647
   1418.88611     722.6526     391.5359   1418.88611     722.6526     391.5359
   1418.87085     723.0163     391.9879   1418.87085     723.0163     391.9879
   1418.85559     725.6306     391.9880   1418.85559     725.6306     391.9880
   1418.84033     725.5975     392.5204   1418.84033     725.5975     392.5204
   1418.82507     726.0532     393.3269   1418.82507     726.0532     393.3269
   1418.80981     727.3453     393.1590   1418.80981     727.3453     393.1590
   1418.79456     727.4774     394.0986   1418.79456     727.4774     394.0986
   1418.77930     727.9030     394.2020   1418.77930     727.9030     394.2020
   1418.76404     728.5790     394.4651   1418.76404     728.5790     394.4651
   1418.74878     728.6796     395.1095   1418.74878     728.6796     395.1095
   1418.73352     729.7924     394.9771   1418.73352     729.7924     394.9771
   1418.71826     730.4838     396.0335   1418.71826     730.4838     396.0335
   1418.70300     729.9482     396.4236   1418.70300     729.9482     396.4236
   1418.68774     732.3049     396.6690   1418.68774     732.3049     396.6690
   1418.67249     733.3186     397.4109   1418.67249     733.3186     397.4109
   1418.65723     732.4583     397.7324   1418.65723     732.4583     397.7324
   1418.64197     733.5356     397.4398   1418.64197     733.5356     397.4398
   1418.62671     734.2087     398.4882   1418.62671     734.2087     398.4882
   1418.61145     735.0152     398.9286   1418.61145     735.0152     398.9286
   1418.59619     736.2347     400.2702   1418.59619     736.2347     400.2702
   1418.58093     737.1741     400.1299   1418.58093     737.1741     400.1299
   1418.56567     738.9332     400.3097   1418.56567     738.9332     400.3097
   1418.55042     739.1520     400.9348   1418.55042     739.1520     400.9348
   1418.53516     739.3010     401.4243   1418.53516     739.3010     401.4243
   1418.51990     740.2329     402.3819   1418.51990     740.2329     402.3819
   1418.50464     739.9424     403.2129   1418.50464     739.9424     403.2129
   1418.48938     741.7444     403.7744   1418.48938     741.7444     403.7744
   1418.47412     742.5759     403.4683   1418.47412     742.5759     403.4683
   1418.45886     744.0450     403.9168   1418.45886     744.0450     403.9168
   1418.44360     743.6926     405.9874   1418.44360     743.6926     405.9874
   1418.42834     745.8855     406.3940   1418.42834     745.8855     406.3940
   1418.41309     745.3762     407.2565   1418.41309     745.3762     407.2565
   1418.39783     745.8398     407.2168   1418.39783     745.8398     407.2168
   1418.38257     746.8467     408.1359   1418.38257     746.8467     408.1359
   1418.36731     747.7446     408.1991   1418.36731     747.7446     408.1991
   1418.35205     749.0786     409.7668   1418.35205     749.0786     409.7668
   1418.33679     749.6680     410.2962   1418.33679     749.6680     410.2962
   1418.32153     750.6775     410.6035   1418.32153     750.6775     410.6035
   1418.30627     751.6778     411.7691   1418.30627     751.6778     411.7691
   1418.29102     751.6205     412.3102   1418.29102     751.6205     412.3102
   1418.27576     753.4382     413.2568   1418.27576     753.4382     413.2568
   1418.26050     754.3811     414.0571   1418.26050     754.3811     414.0571
   1418.24524     754.8999     414.9970   1418.24524     754.8999     414.9970
   1418.22998     757.6663     415.8383   1418.22998     757.6663     415.8383
   1418.21472     757.1413     416.8238   1418.21472     757.1413     416.8238
   1418.19946     756.3649     417.1244   1418.19946     756.3649     417.1244
   1418.18420     759.0975     418.0306   1418.18420     759.0975     418.0306
   1418.16895     758.0940     418.5333   1418.16895     758.0940     418.5333
   1418.15369     758.9340     419.5821   1418.15369     758.9340     419.5821
   1418.13843     761.1984     420.4647   1418.13843     761.1984     420.4647
   1418.12317     761.7646     421.4894   1418.12317     761.7646     421.4894
   1418.10791     761.5989     422.5096   1418.10791     761.5989     422.5096
   1418.09265     763.6816     423.1602   1418.09265     763.6816     423.1602
   1418.07739     765.3877     423.8964   1418.07739     765.3877     423.8964
   1418.06213     764.9622     424.5477   1418.06213     764.9622     424.5477
   1418.04688     765.7044     426.4034   1418.04688     765.7044     426.4034
   1418.03162     766.4604     426.8237   1418.03162     766.4604     426.8237
   1418.01636     768.8381     427.4377   1418.01636     768.8381     427.4377
   1418.00110     769.0080     428.8239   1418.00110     769.0080     428.8239
   1417.98584     770.0621     429.1420   1417.98584     770.0621     429.1420
   1417.97058     771.2483     430.9146   1417.97058     771.2483     430.9146
   1417.95532     771.9870     430.5644   1417.95532     771.9870     430.5644
   1417.94006     771.9889     432.8614   1417.94006     771.9889     432.8614
   1417.92480     774.0966     434.0121   1417.92480     774.0966     434.0121
   1417.90955     773.5789     435.0805   1417.90955     773.5789     435.0805
   1417.89429     776.1606     435.3590   1417.89429     776.1606     435.3590
   1417.87903     776.7401     436.0533   1417.87903     776.7401     436.0533
   1417.86377     778.0185     437.6758   1417.86377     778.0185     437.6758
   1417.84851     778.2031     438.6273   1417.84851     778.2031     438.6273
   1417.83325     779.6042     439.8408   1417.83325     779.6042     439.8408
   1417.81799     780.4965     441.0652   1417.81799     780.4965     441.0652
   1417.80273     782.4799     441.8414   1417.80273     782.4799     441.8414
   1417.78748     782.2965     442.7740   1417.78748     782.2965     442.7740
   1417.77222     782.5909     444.0754   1417.77222     782.5909     444.0754
   1417.75696     784.1981     445.0609   1417.75696     784.1981     445.0609
   1417.74170     785.9141     446.0711   1417.74170     785.9141     446.0711
   1417.72644     785.4778     445.9846   1417.72644     785.4778     445.9846
   1417.71118     786.8004     448.2339   1417.71118     786.8004     448.2339
   1417.69592     788.4128     448.6331   1417.69592     788.4128     448.6331
   1417.68066     788.5419     450.6621   1417.68066     788.5419     450.6621
   1417.66541     790.0929     452.0895   1417.66541     790.0929     452.0895
   1417.65015     791.3917     452.0138   1417.65015     791.3917     452.0138
   1417.63489     790.7805     453.7413   1417.63489     790.7805     453.7413
   1417.61963     792.0312     454.7048   1417.61963     792.0312     454.7048
   1417.60437     793.1880     456.0092   1417.60437     793.1880     456.0092
   1417.58911     794.4116     456.8985   1417.58911     794.4116     456.8985
   1417.57385     794.9849     457.9541   1417.57385     794.9849     457.9541
   1417.55859     796.0800     459.3853   1417.55859     796.0800     459.3853
   1417.54333     796.9209     459.6793   1417.54333     796.9209     459.6793
   1417.52808     796.9116     462.0865   1417.52808     796.9116     462.0865
   1417.51282     798.1359     462.7205   1417.51282     798.1359     462.7205
   1417.49756     799.2938     464.3854   1417.49756     799.2938     464.3854
   1417.48230     800.1683     465.3198   1417.48230     800.1683     465.3198
   1417.46704     800.9349     466.6141   1417.46704     800.9349     466.6141
   1417.45178     801.5066     467.1654   1417.45178     801.5066     467.1654
   1417.43652     802.2081     469.1784   1417.43652     802.2081     469.1784
   1417.42126     804.1266     469.5381   1417.42126     804.1266     469.5381
   1417.40601     804.7535     471.2751   1417.40601     804.7535     471.2751
   1417.39075     805.9988     471.9984   1417.39075     805.9988     471.9984
   1417.37549     806.4384     473.3698   1417.37549     806.4384     473.3698
   1417.36023     806.8486     475.2865   1417.36023     806.8486     475.2865
   1417.34497     808.2878     476.0067   1417.34497     808.2878     476.0067
   1417.32971     807.9426     476.8315   1417.32971     807.9426     476.8315
   1417.31445     810.2178     478.8231   1417.31445     810.2178     478.8231
   1417.29919     810.5765     479.5540   1417.29919     810.5765     479.5540
   1417.28394     811.6625     480.4678   1417.28394     811.6625     480.4678
   1417.26868     811.4514     481.8829   1417.26868     811.4514     481.8829
   1417.25342     814.1523     482.9615   1417.25342     814.1523     482.9615
   1417.23816     813.9435     484.2708   1417.23816     813.9435     484.2708
   1417.22290     815.3596     485.8848   1417.22290     815.3596     485.8848
   1417.20764     815.7355     486.1856   1417.20764     815.7355     486.1856
   1417.19238     815.1719     487.5738   1417.19238     815.1719     487.5738
   1417.17712     817.2753     489.1091   1417.17712     817.2753     489.1091
   1417.16187     816.4385     489.6606   1417.16187     816.4385     489.6606
   1417.14661     816.8110     491.8801   1417.14661     816.8110     491.8801
   1417.13135     818.2271     493.0533   1417.13135     818.2271     493.0533
   1417.11609     819.2792     493.8635   1417.11609     819.2792     493.8635
   1417.10083     819.1378     495.7054   1417.10083     819.1378     495.7054
   1417.08557     820.5487     496.1861   1417.08557     820.5487     496.1861
   1417.07031     820.8364     497.4414   1417.07031     820.8364     497.4414
   1417.05505     821.8616     498.0111   1417.05505     821.8616     498.0111
   1417.03979     822.2722     500.2060   1417.03979     822.2722     500.2060
   1417.02454     821.8759     500.1135   1417.02454     821.8759     500.1135
   1417.00928     823.2331     501.8165   1417.00928     823.2331     501.8165
   1416.99402     823.7711     503.4546   1416.99402     823.7711     503.4546
   1416.97876     824.9153     503.8876   1416.97876     824.9153     503.8876
   1416.96350     825.4083     505.1375   1416.96350     825.4083     505.1375
   1416.94824     826.2162     506.2568   1416.94824     826.2162     506.2568
   1416.93298     826.4714     507.1180   1416.93298     826.4714     507.1180
   1416.91772     826.6729     507.9080   1416.91772     826.6729     507.9080
   1416.90247     826.0210     509.9384   1416.90247     826.0210     509.9384
   1416.88721     826.1362     510.2214   1416.88721     826.1362     510.2214
   1416.87195     826.0327     511.5940   1416.87195     826.0327     511.5940
   1416.85669     826.8088     512.9463   1416.85669     826.8088     512.9463
   1416.84143     828.7935     513.9503   1416.84143     828.7935     513.9503
   1416.82617     828.1607     514.6120   1416.82617     828.1607     514.6120
   1416.81091     827.2301     515.7928   1416.81091     827.2301     515.7928
   1416.79565     828.6924     517.2040   1416.79565     828.6924     517.2040
   1416.78040     828.9696     518.0195   1416.78040     828.9696     518.0195
   1416.76514     829.6891     518.1195   1416.76514     829.6891     518.1195
   1416.74988     829.5728     519.8102   1416.74988     829.5728     519.8102
   1416.73462     830.4030     521.3611   1416.73462     830.4030     521.3611
   1416.71936     829.9436     521.0756   1416.71936     829.9436     521.0756
   1416.70410     829.6733     522.3951   1416.70410     829.6733     522.3951
   1416.68884     829.9710     522.5338   1416.68884     829.9710     522.5338
   1416.67358     830.8067     523.8812   1416.67358     830.8067     523.8812
   1416.65833     831.3248     525.2341   1416.65833     831.3248     525.2341
   1416.64307     831.2386     525.5594   1416.64307     831.2386     525.5594
   1416.62781     830.3818     526.3066   1416.62781     830.3818     526.3066
   1416.61255     830.9556     527.9996   1416.61255     830.9556     527.9996
   1416.59729     832.0237     528.9860   1416.59729     832.0237     528.9860
   1416.58203     831.4760     528.3506   1416.58203     831.4760     528.3506
   1416.56677     830.6039     529.5642   1416.56677     830.6039     529.5642
   1416.55151     831.8889     530.6332   1416.55151     831.8889     530.6332
   1416.53625     830.1194     531.3961   1416.53625     830.1194     531.3961
   1416.52100     830.2836     531.9891   1416.52100     830.2836     531.9891
   1416.50574     831.2635     532.8027   1416.50574     831.2635     532.8027
   1416.49048     831.1357     531.9125   1416.49048     831.1357     531.9125
   1416.47522     829.6534     532.8461   1416.47522     829.6534     532.8461
   1416.45996     829.2827     533.3005   1416.45996     829.2827     533.3005
   1416.44470     830.9540     534.4660   1416.44470     830.9540     534.4660
   1416.42944     830.8539     534.8124   1416.42944     830.8539     534.8124
   1416.41418     829.9356     535.1432   1416.41418     829.9356     535.1432
   1416.39893     829.1534     535.9311   1416.39893     829.1534     535.9311
   1416.38367     829.3333     536.2390   1416.38367     829.3333     536.2390
   1416.36841     829.2940     536.5410   1416.36841     829.2940     536.5410
   1416.35315     828.4448     537.3730   1416.35315     828.4448     537.3730
   1416.33789     827.9789     537.0963   1416.33789     827.9789     537.0963
   1416.32263     829.2340     537.8083   1416.32263     829.2340     537.8083
   1416.30737     829.2381     538.2590   1416.30737     829.2381     538.2590
   1416.29211     826.3713     538.1342   1416.29211     826.3713     538.1342
   1416.27686     826.9219     538.3162   1416.27686     826.9219     538.3162
   1416.26160     826.4494     538.8679   1416.26160     826.4494     538.8679
   1416.24634     827.5045     539.7684   1416.24634     827.5045     539.7684
   1416.23108     825.8193     539.1516   1416.23108     825.8193     539.1516
   1416.21582     823.7818     540.4356   1416.21582     823.7818     540.4356
   1416.20056     825.4688     539.6736   1416.20056     825.4688     539.6736
   1416.18530     823.4409     539.9961   1416.18530     823.4409     539.9961
   1416.17004     824.3437     539.6016   1416.17004     824.3437     539.6016
   1416.15479     822.6499     540.7225   1416.15479     822.6499     540.7225
   1416.13953     823.3505     540.5756   1416.13953     823.3505     540.5756
   1416.12427     821.4387     540.4612   1416.12427     821.4387     540.4612
   1416.10901     821.9281     540.0963   1416.10901     821.9281     540.0963
   1416.09375     820.9679     541.1623   1416.09375     820.9679     541.1623
   1416.07849     820.0020     540.8491   1416.07849     820.0020     540.8491
   1416.06323     819.2167     540.9837   1416.06323     819.2167     540.9837
   1416.04797     816.6473     540.8339   1416.04797     816.6473     540.8339
   1416.03271     818.4822     540.0190   1416.03271     818.4822     540.0190
   1416.01746     817.6112     540.3705   1416.01746     817.6112     540.3705
   1416.00220     816.0392     540.7891   1416.00220     816.0392     540.7891
   1415.98694     815.1567     540.4143   1415.98694     815.1567     540.4143
   1415.97168     815.0105     539.8804   1415.97168     815.0105     539.8804
   1415.95642     814.3466     539.6501   1415.95642     814.3466     539.6501
   1415.94116     815.3530     539.9780   1415.94116     815.3530     539.9780
   1415.92590     812.4902     539.8107   1415.92590     812.4902     539.8107
   1415.91064     812.1200     539.3515   1415.91064     812.1200     539.3515
   1415.89539     811.2056     538.5674   1415.89539     811.2056     538.5674
   1415.88013     811.4179     539.1851   1415.88013     811.4179     539.1851
   1415.86487     809.4774     538.8578   1415.86487     809.4774     538.8578
   1415.84961     808.1683     539.0546   1415.84961     808.1683     539.0546
   1415.83435     808.8701     539.3708   1415.83435     808.8701     539.3708
   1415.81909     806.6303     537.6814   1415.81909     806.6303     537.6814
   1415.80383     805.4459     537.2555   1415.80383     805.4459     537.2555
   1415.78857     804.8413     538.1326   1415.78857     804.8413     538.1326
   1415.77332     804.1400     536.9965   1415.77332     804.1400     536.9965
   1415.75806     802.0287     536.5206   1415.75806     802.0287     536.5206
   1415.74280     802.5686     537.0023   1415.74280     802.5686     537.0023
   1415.72754     801.0565     535.9607   1415.72754     801.0565     535.9607
   1415.71228     801.6189     536.5862   1415.71228     801.6189     536.5862
   1415.69702     799.3439     534.9324   1415.69702     799.3439     534.9324
   1415.68176     798.9344     534.9847   1415.68176     798.9344     534.9847
   1415.66650     797.8438     536.0889   1415.66650     797.8438     536.0889
   1415.65125     795.9700     535.5725   1415.65125     795.9700     535.5725
   1415.63599     795.2244     534.0338   1415.63599     795.2244     534.0338
   1415.62073     794.2046     533.8886   1415.62073     794.2046     533.8886
   1415.60547     793.4911     533.6120   1415.60547     793.4911     533.6120
   1415.59021     791.9548     533.8656   1415.59021     791.9548     533.8656
   1415.57495     790.1045     532.6062   1415.57495     790.1045     532.6062
   1415.55969     790.3801     532.2186   1415.55969     790.3801     532.2186
   1415.54443     789.1309     531.7786   1415.54443     789.1309     531.7786
   1415.52917     786.2729     530.7177   1415.52917     786.2729     530.7177
   1415.51392     786.4938     531.0301   1415.51392     786.4938     531.0301
   1415.49866     786.3344     530.4712   1415.49866     786.3344     530.4712
   1415.48340     783.6680     529.7828   1415.48340     783.6680     529.7828
   1415.46814     783.3700     529.3926   1415.46814     783.3700     529.3926
   1415.45288     781.1855     529.6807   1415.45288     781.1855     529.6807
   1415.43762     780.2825     528.4893   1415.43762     780.2825     528.4893
   1415.42236     779.8536     527.5175   1415.42236     779.8536     527.5175
   1415.40710     778.6900     527.2440   1415.40710     778.6900     527.2440
   1415.39185     777.1331     527.5797   1415.39185     777.1331     527.5797
   1415.37659     776.3372     526.2106   1415.37659     776.3372     526.2106
   1415.36133     775.6663     525.9518   1415.36133     775.6663     525.9518
   1415.34607     773.5913     526.1038   1415.34607     773.5913     526.1038
   1415.33081     770.6804     524.3564   1415.33081     770.6804     524.3564
   1415.31555     771.0220     524.3138   1415.31555     771.0220     524.3138
   1415.30029     769.7720     522.9420   1415.30029     769.7720     522.9420
   1415.28503     769.3306     523.5764   1415.28503     769.3306     523.5764
   1415.26978     766.3606     522.3458   1415.26978     766.3606     522.3458
   1415.25452     765.9988     521.7355   1415.25452     765.9988     521.7355
   1415.23926     764.4268     521.4268   1415.23926     764.4268     521.4268
   1415.22400     763.7819     521.0908   1415.22400     763.7819     521.0908
   1415.20874     760.7134     520.3683   1415.20874     760.7134     520.3683
   1415.19348     760.5925     520.0654   1415.19348     760.5925     520.0654
   1415.17822     758.3244     518.7139   1415.17822     758.3244     518.7139
   1415.16296     758.1207     517.9376   1415.16296     758.1207     517.9376
   1415.14771     755.3915     516.5468   1415.14771     755.3915     516.5468
   1415.13245     754.5436     516.3702   1415.13245     754.5436     516.3702
   1415.11719     752.0749     515.2277   1415.11719     752.0749     515.2277
   1415.10193     751.2498     515.4891   1415.10193     751.2498     515.4891
   1415.08667     749.6703     514.2962   1415.08667     749.6703     514.2962
   1415.07141     748.5888     513.8852   1415.07141     748.5888     513.8852
   1415.05615     745.9751     512.7933   1415.05615     745.9751     512.7933
   1415.04089     745.5711     512.5613   1415.04089     745.5711     512.5613
   1415.02563     742.0672     512.3033   1415.02563     742.0672     512.3033
   1415.01038     742.7483     510.9860   1415.01038     742.7483     510.9860
   1414.99512     738.3906     509.2070   1414.99512     738.3906     509.2070
   1414.97986     738.5656     508.7005   1414.97986     738.5656     508.7005
   1414.96460     737.5062     507.5692   1414.96460     737.5062     507.5692
   1414.94934     735.6248     507.0389   1414.94934     735.6248     507.0389
   1414.93408     733.2778     505.9968   1414.93408     733.2778     505.9968
   1414.91882     732.4457     505.0142   1414.91882     732.4457     505.0142
   1414.90356     729.5532     504.5508   1414.90356     729.5532     504.5508
   1414.88831     727.0248     503.6991   1414.88831     727.0248     503.6991
   1414.87305     726.7693     503.5099   1414.87305     726.7693     503.5099
   1414.85779     723.9781     502.2483   1414.85779     723.9781     502.2483
   1414.84253     723.4971     500.7672   1414.84253     723.4971     500.7672
   1414.82727     721.4912     499.5402   1414.82727     721.4912     499.5402
   1414.81201     716.8303     497.9441   1414.81201     716.8303     497.9441
   1414.79675     717.3821     497.5631   1414.79675     717.3821     497.5631
   1414.78149     715.2890     496.2159   1414.78149     715.2890     496.2159
   1414.76624     713.2884     495.9116   1414.76624     713.2884     495.9116
   1414.75098     712.6506     494.4470   1414.75098     712.6506     494.4470
   1414.73572     710.1527     493.2408   1414.73572     710.1527     493.2408
   1414.72046     706.2369     493.0622   1414.72046     706.2369     493.0622
   1414.70520     706.5393     491.4924   1414.70520     706.5393     491.4924
   1414.68994     703.1046     489.8812   1414.68994     703.1046     489.8812
   1414.67468     702.9331     489.5912   1414.67468     702.9331     489.5912
   1414.65942     700.7067     487.8426   1414.65942     700.7067     487.8426
   1414.64417     697.4523     487.2560   1414.64417     697.4523     487.2560
   1414.62891     696.1461     486.2010   1414.62891     696.1461     486.2010
   1414.61365     693.9066     484.5934   1414.61365     693.9066     484.5934
   1414.59839     692.4116     484.0692   1414.59839     692.4116     484.0692
   1414.58313     689.6968     482.5673   1414.58313     689.6968     482.5673
   1414.56787     686.7457     481.7687   1414.56787     686.7457     481.7687
   1414.55261     685.3374     479.7136   1414.55261     685.3374     479.7136
   1414.53735     683.3375     479.6131   1414.53735     683.3375     479.6131
   1414.52209     680.8802     477.5049   1414.52209     680.8802     477.5049
   1414.50684     679.1032     476.9180   1414.50684     679.1032     476.9180
   1414.49158     676.0704     475.6556   1414.49158     676.0704     475.6556
   1414.47632     672.8334     474.1404   1414.47632     672.8334     474.1404
   1414.46106     672.3246     472.8024   1414.46106     672.3246     472.8024
   1414.44580     669.6440     471.1650   1414.44580     669.6440     471.1650
   1414.43054     668.2798     470.6800   1414.43054     668.2798     470.6800
   1414.41528     664.0128     468.7316   1414.41528     664.0128     468.7316
   1414.40002     662.1566     467.4759   1414.40002     662.1566     467.4759
   1414.38477     660.7120     465.7173   1414.38477     660.7120     465.7173
   1414.36951     657.2034     464.9393   1414.36951     657.2034     464.9393
   1414.35425     655.1659     462.9637   1414.35425     655.1659     462.9637
   1414.33899     652.3779     461.8123   1414.33899     652.3779     461.8123
   1414.32373     650.5142     461.2446   1414.32373     650.5142     461.2446
   1414.30847     648.4445     459.0073   1414.30847     648.4445     459.0073
   1414.29321     644.8297     457.4403   1414.29321     644.8297     457.4403
   1414.27795     644.0224     456.7896   1414.27795     644.0224     456.7896
   1414.26270     641.2110     454.8359   1414.26270     641.2110     454.8359
   1414.24744     637.9419     453.0877   1414.24744     637.9419     453.0877
   1414.23218     635.4421     450.9004   1414.23218     635.4421     450.9004
   1414.21692     632.7290     450.3642   1414.21692     632.7290     450.3642
   1414.20166     630.2866     448.8669   1414.20166     630.2866     448.8669
   1414.18640     628.0565     447.5747   1414.18640     628.0565     447.5747
   1414.17114     625.2128     445.0819   1414.17114     625.2128     445.0819
   1414.15588     622.7946     444.1516   1414.15588     622.7946     444.1516
   1414.14062     619.6010     442.7698   1414.14062     619.6010     442.7698
   1414.12537     617.8623     441.4216   1414.12537     617.8623     441.4216
   1414.11011     614.3671     439.3219   1414.11011     614.3671     439.3219
   1414.09485     612.1638     437.3156   1414.09485     612.1638     437.3156
   1414.07959     609.2317     435.6385   1414.07959     609.2317     435.6385
   1414.06433     607.3588     435.1718   1414.06433     607.3588     435.1718
   1414.04907     602.7872     432.6017   1414.04907     602.7872     432.6017
   1414.03381     600.4472     431.6768   1414.03381     600.4472     431.6768
   1414.01855     600.1892     430.1543   1414.01855     600.1892     430.1543
   1414.00330     625.4768     437.0616   1414.00330     625.4768     437.0616
   1413.98804     595.4737     426.8054   1413.98804     595.4737     426.8054
   1413.97278     590.2234     424.4632   1413.97278     590.2234     424.4632
   1413.95752     587.4589     423.1002   1413.95752     587.4589     423.1002
   1413.94226     585.5697     421.9248   1413.94226     585.5697     421.9248
   1413.92700     581.0666     419.2639   1413.92700     581.0666     419.2639
   1413.91174     579.4841     418.2516   1413.91174     579.4841     418.2516
   1413.89648     576.6577     416.0458   1413.89648     576.6577     416.0458
   1413.88123     573.7162     414.8615   1413.88123     573.7162     414.8615
   1413.86597     570.9011     413.1763   1413.86597     570.9011     413.1763
   1413.85071     567.7643     411.1647   1413.85071     567.7643     411.1647
   1413.83545     565.3315     408.9807   1413.83545     565.3315     408.9807
   1413.82019     562.3893     406.9579   1413.82019     562.3893     406.9579
   1413.80493     559.6084     406.4484   1413.80493     559.6084     406.4484
   1413.78967     556.3854     404.2945   1413.78967     556.3854     404.2945
   1413.77441     553.1669     402.7001   1413.77441     553.1669     402.7001
   1413.75916     550.3207     401.0882   1413.75916     550.3207     401.0882
   1413.74390     548.4499     399.1531   1413.74390     548.4499     399.1531
   1413.72864     544.3093     397.8826   1413.72864     544.3093     397.8826
   1413.71338     542.5546     395.5441   1413.71338     542.5546     395.5441
   1413.69812     540.0513     394.0602   1413.69812     540.0513     394.0602
   1413.68286     537.1489     392.2080   1413.68286     537.1489     392.2080
   1413.66760     534.3889     389.8732   1413.66760     534.3889     389.8732
   1413.65234     531.3731     388.9861   1413.65234     531.3731     388.9861
   1413.63708     527.7731     387.3735   1413.63708     527.7731     387.3735
   1413.62183     524.9270     385.4645   1413.62183     524.9270     385.4645
   1413.60657     522.5179     383.9408   1413.60657     522.5179     383.9408
   1413.59131     519.8203     382.4630   1413.59131     519.8203     382.4630
   1413.57605     517.4540     380.1284   1413.57605     517.4540     380.1284
   1413.56079     514.6644     378.5863   1413.56079     514.6644     378.5863
   1413.54553     511.7383     377.0522   1413.54553     511.7383     377.0522
   1413.53027     508.7205     374.9811   1413.53027     508.7205     374.9811
   1413.51501     505.8205     374.0798   1413.51501     505.8205     374.0798
   1413.49976     501.9766     371.9028   1413.49976     501.9766     371.9028
   1413.48450     500.3365     370.3077   1413.48450     500.3365     370.3077
   1413.46924     496.7325     369.1542   1413.46924     496.7325     369.1542
   1413.45398     495.5477     367.6715   1413.45398     495.5477     367.6715
   1413.43872     491.8980     365.7582   1413.43872     491.8980     365.7582
   1413.42346     488.7872     363.8545   1413.42346     488.7872     363.8545
   1413.40820     487.2736     362.4061   1413.40820     487.2736     362.4061
   1413.39294     483.5197     360.6374   1413.39294     483.5197     360.6374
   1413.37769     481.0595     359.0186   1413.37769     481.0595     359.0186
   1413.36243     478.4593     357.7079   1413.36243     478.4593     357.7079
   1413.34717     475.9029     356.1210   1413.34717     475.9029     356.1210
   1413.33191     472.6365     354.4719   1413.33191     472.6365     354.4719
   1413.31665     471.4982     353.0628   1413.31665     471.4982     353.0628
   1413.30139     468.0674     351.9653   1413.30139     468.0674     351.9653
   1413.28613     465.3111     350.0305   1413.28613     465.3111     350.0305
   1413.27087     463.4194     348.8856   1413.27087     463.4194     348.8856
   1413.25562     459.7485     347.0019   1413.25562     459.7485     347.0019
   1413.24036     457.7618     345.7651   1413.24036     457.7618     345.7651
   1413.22510     455.7955     344.6880   1413.22510     455.7955     344.6880
   1413.20984     453.2339     343.2403   1413.20984     453.2339     343.2403
   1413.19458     451.0037     341.9070   1413.19458     451.0037     341.9070
   1413.17932     447.5393     341.2617   1413.17932     447.5393     341.2617
   1413.16406     445.8178     339.2716   1413.16406     445.8178     339.2716
   1413.14880     442.8607     338.0697   1413.14880     442.8607     338.0697
   1413.13354     442.2611     336.9786   1413.13354     442.2611     336.9786
   1413.11829     439.4076     335.7214   1413.11829     439.4076     335.7214
   1413.10303     436.7560     334.2503   1413.10303     436.7560     334.2503
   1413.08777     434.7806     333.5913   1413.08777     434.7806     333.5913
   1413.07251     432.3472     331.3389   1413.07251     432.3472     331.3389
   1413.05725     430.0034     331.0801   1413.05725     430.0034     331.0801
   1413.04199     427.9038     329.7162   1413.04199     427.9038     329.7162
   1413.02673     425.2720     328.8153   1413.02673     425.2720     328.8153
   1413.01147     423.4514     328.4637   1413.01147     423.4514     328.4637
   1412.99622     421.3499     327.0334   1412.99622     421.3499     327.0334
   1412.98096     418.9514     326.0137   1412.98096     418.9514     326.0137
   1412.96570     418.0380     325.3982   1412.96570     418.0380     325.3982
   1412.95044     415.5836     324.2885   1412.95044     415.5836     324.2885
   1412.93518     414.0257     323.2622   1412.93518     414.0257     323.2622
   1412.91992     412.5525     322.1449   1412.91992     412.5525     322.1449
   1412.90466     410.8665     321.3504   1412.90466     410.8665     321.3504
   1412.88940     409.0968     321.0447   1412.88940     409.0968     321.0447
   1412.87415     406.6767     320.2244   1412.87415     406.6767     320.2244
   1412.85889     405.7471     319.9212   1412.85889     405.7471     319.9212
   1412.84363     403.5552     319.0720   1412.84363     403.5552     319.0720
   1412.82837     401.8363     318.3629   1412.82837     401.8363     318.3629
   1412.81311     400.5509     317.9989   1412.81311     400.5509     317.9989
   1412.79785     398.7882     317.4208   1412.79785     398.7882     317.4208
   1412.78259     397.3235     316.7054   1412.78259     397.3235     316.7054
   1412.76733     396.4643     316.6544   1412.76733     396.4643     316.6544
   1412.75208     394.3438     316.2651   1412.75208     394.3438     316.2651
   1412.73682     393.7235     315.5684   1412.73682     393.7235     315.5684
   1412.72156     392.1266     315.4000   1412.72156     392.1266     315.4000
   1412.70630     390.8514     315.8962   1412.70630     390.8514     315.8962
   1412.69104     389.9805     315.4864   1412.69104     389.9805     315.4864
   1412.67578     388.8233     315.3902   1412.67578     388.8233     315.3902
   1412.66052     387.7388     314.9677   1412.66052     387.7388     314.9677
   1412.64526     386.6347     314.7115   1412.64526     386.6347     314.7115
   1412.63000     385.7741     314.4494   1412.63000     385.7741     314.4494
   1412.61475     384.6814     314.4569   1412.61475     384.6814     314.4569
   1412.59949     384.3777     315.2158   1412.59949     384.3777     315.2158
   1412.58423     383.8919     314.7217   1412.58423     383.8919     314.7217
   1412.56897     382.4307     314.9808   1412.56897     382.4307     314.9808
   1412.55371     381.2513     315.5862   1412.55371     381.2513     315.5862
   1412.53845     381.0642     315.8867   1412.53845     381.0642     315.8867
   1412.52319     379.9824     316.1493   1412.52319     379.9824     316.1493
   1412.50793     379.4300     316.1652   1412.50793     379.4300     316.1652
   1412.49268     379.6308     316.4674   1412.49268     379.6308     316.4674
   1412.47742     378.9563     317.0027   1412.47742     378.9563     317.0027
   1412.46216     378.2394     317.9852   1412.46216     378.2394     317.9852
   1412.44690     378.5831     318.5815   1412.44690     378.5831     318.5815
   1412.43164     377.8934     319.1540   1412.43164     377.8934     319.1540
   1412.41638     377.4500     319.0604   1412.41638     377.4500     319.0604
   1412.40112     377.5508     319.7530   1412.40112     377.5508     319.7530
   1412.38586     377.1372     320.8162   1412.38586     377.1372     320.8162
   1412.37061     377.1473     322.1929   1412.37061     377.1473     322.1929
   1412.35535     377.9852     322.2731   1412.35535     377.9852     322.2731
   1412.34009     377.2260     323.3795   1412.34009     377.2260     323.3795
   1412.32483     377.2869     323.6792   1412.32483     377.2869     323.6792
   1412.30957     377.4146     325.2575   1412.30957     377.4146     325.2575
   1412.29431     378.1043     325.9742   1412.29431     378.1043     325.9742
   1412.27905     378.3882     326.6742   1412.27905     378.3882     326.6742
   1412.26379     378.5340     327.9197   1412.26379     378.5340     327.9197
   1412.24854     378.7546     328.8643   1412.24854     378.7546     328.8643
   1412.23328     378.8232     330.7000   1412.23328     378.8232     330.7000
   1412.21802     379.6604     331.6626   1412.21802     379.6604     331.6626
   1412.20276     380.2598     332.8521   1412.20276     380.2598     332.8521