#     FILENAME=!Skynet_57528_lach-cc-200_20605_21059.cyb.fits
#     BASENAME=Skynet_57528_lach-cc-200_20605_21059
#     SRC_NAME=lach-cc-200
#     OBSERVER=ccmadison16_9505
#     DATE_OBS=2016-05-20T20:34:52.250
#        OBSID=20605
#      SCANNUM=21059
#          MJD=57528.8585
#          UTC=74170
#     SCANTYPE=track
#     DATAMODE=HIRES
#     TUNEFREQ=1420.0000
# Actual_FREQ1=1420.0000
# Actual_FREQ2=1420.0000
#    LO1Tuning=6870.000
#     RFFILTER=1355_1435
#        OBSBW=-15.6250
#        NCHAN=1024 
#        FOCUS=37.0709
#           RA=06:27:29.34
#          DEC=11:29:19.58
#      RA(hrs)=6.458200
#     DEC(deg)=11.488800
#    AZIM(deg)=201.829
#    ELEV(deg)=61.275
#     IFattens=10.00, 9.00
#      WARNING=None
#    TCAL_XL1=7.9635
#    TCAL_YR1=9.1340
#    TCAL_XL2=7.9635
#    TCAL_YR2=9.1340
#     TRX_XL1=11.7060
#     TRX_YR1=11.7060
#     TRX_XL2=11.7060
#     TRX_YR2=11.7060
#        TAVE=1.0000
#Freq1(MHz)          XL1          YR1  Freq2(MHz)          XL2          YR2 

   1427.81250     347.4218     264.5094   1427.81250     347.4218     264.5094
   1427.79724     347.8200     265.5235   1427.79724     347.8200     265.5235
   1427.78198     348.4451     266.8296   1427.78198     348.4451     266.8296
   1427.76672     349.1855     267.2182   1427.76672     349.1855     267.2182
   1427.75146     350.0603     268.3672   1427.75146     350.0603     268.3672
   1427.73621     350.8883     269.3294   1427.73621     350.8883     269.3294
   1427.72095     351.5070     269.5524   1427.72095     351.5070     269.5524
   1427.70569     352.8950     271.0767   1427.70569     352.8950     271.0767
   1427.69043     353.2599     272.5883   1427.69043     353.2599     272.5883
   1427.67517     354.8916     272.8331   1427.67517     354.8916     272.8331
   1427.65991     355.3864     274.0987   1427.65991     355.3864     274.0987
   1427.64465     356.7869     275.5032   1427.64465     356.7869     275.5032
   1427.62939     357.9221     276.1534   1427.62939     357.9221     276.1534
   1427.61414     358.7863     277.6310   1427.61414     358.7863     277.6310
   1427.59888     360.7120     279.0161   1427.59888     360.7120     279.0161
   1427.58362     361.5118     280.4952   1427.58362     361.5118     280.4952
   1427.56836     362.9767     281.9120   1427.56836     362.9767     281.9120
   1427.55310     364.3296     283.3278   1427.55310     364.3296     283.3278
   1427.53784     366.6190     285.1329   1427.53784     366.6190     285.1329
   1427.52258     367.6418     285.7933   1427.52258     367.6418     285.7933
   1427.50732     369.3342     287.7589   1427.50732     369.3342     287.7589
   1427.49207     371.0699     288.7224   1427.49207     371.0699     288.7224
   1427.47681     372.1346     290.6388   1427.47681     372.1346     290.6388
   1427.46155     373.9891     292.3358   1427.46155     373.9891     292.3358
   1427.44629     376.4475     293.9604   1427.44629     376.4475     293.9604
   1427.43103     378.2035     295.9171   1427.43103     378.2035     295.9171
   1427.41577     379.1017     297.3878   1427.41577     379.1017     297.3878
   1427.40051     381.7970     299.0866   1427.40051     381.7970     299.0866
   1427.38525     383.7482     300.8424   1427.38525     383.7482     300.8424
   1427.37000     385.6221     302.0708   1427.37000     385.6221     302.0708
   1427.35474     387.1421     304.5519   1427.35474     387.1421     304.5519
   1427.33948     389.4643     306.1174   1427.33948     389.4643     306.1174
   1427.32422     391.6642     308.4243   1427.32422     391.6642     308.4243
   1427.30896     394.4227     310.2090   1427.30896     394.4227     310.2090
   1427.29370     396.4026     312.1867   1427.29370     396.4026     312.1867
   1427.27844     397.6682     313.9150   1427.27844     397.6682     313.9150
   1427.26318     399.5710     316.0846   1427.26318     399.5710     316.0846
   1427.24792     401.6561     317.2347   1427.24792     401.6561     317.2347
   1427.23267     403.8445     319.5194   1427.23267     403.8445     319.5194
   1427.21741     407.3323     321.7102   1427.21741     407.3323     321.7102
   1427.20215     409.3224     324.1809   1427.20215     409.3224     324.1809
   1427.18689     411.4236     325.6423   1427.18689     411.4236     325.6423
   1427.17163     414.4051     328.2234   1427.17163     414.4051     328.2234
   1427.15637     416.1384     331.0015   1427.15637     416.1384     331.0015
   1427.14111     418.9347     333.4196   1427.14111     418.9347     333.4196
   1427.12585     421.6213     335.3010   1427.12585     421.6213     335.3010
   1427.11060     423.6884     337.7597   1427.11060     423.6884     337.7597
   1427.09534     426.5934     339.7911   1427.09534     426.5934     339.7911
   1427.08008     428.7899     342.2954   1427.08008     428.7899     342.2954
   1427.06482     431.4583     344.3614   1427.06482     431.4583     344.3614
   1427.04956     434.4565     347.1664   1427.04956     434.4565     347.1664
   1427.03430     436.6974     349.0091   1427.03430     436.6974     349.0091
   1427.01904     439.1715     351.4595   1427.01904     439.1715     351.4595
   1427.00378     442.3672     353.7739   1427.00378     442.3672     353.7739
   1426.98853     444.1543     355.9494   1426.98853     444.1543     355.9494
   1426.97327     447.3576     358.1242   1426.97327     447.3576     358.1242
   1426.95801     450.5777     361.1791   1426.95801     450.5777     361.1791
   1426.94275     453.2454     362.9719   1426.94275     453.2454     362.9719
   1426.92749     455.7429     365.9631   1426.92749     455.7429     365.9631
   1426.91223     459.1149     368.2869   1426.91223     459.1149     368.2869
   1426.89697     461.7941     370.5269   1426.89697     461.7941     370.5269
   1426.88171     464.5351     373.4648   1426.88171     464.5351     373.4648
   1426.86646     467.3531     375.9945   1426.86646     467.3531     375.9945
   1426.85120     470.0910     378.7505   1426.85120     470.0910     378.7505
   1426.83594     473.0139     381.0655   1426.83594     473.0139     381.0655
   1426.82068     475.4567     383.7114   1426.82068     475.4567     383.7114
   1426.80542     478.3159     386.3980   1426.80542     478.3159     386.3980
   1426.79016     482.8889     388.4511   1426.79016     482.8889     388.4511
   1426.77490     484.6870     391.3541   1426.77490     484.6870     391.3541
   1426.75964     487.6548     393.6022   1426.75964     487.6548     393.6022
   1426.74438     489.7578     396.0699   1426.74438     489.7578     396.0699
   1426.72913     492.2747     399.1311   1426.72913     492.2747     399.1311
   1426.71387     495.7211     400.8972   1426.71387     495.7211     400.8972
   1426.69861     499.1635     403.4930   1426.69861     499.1635     403.4930
   1426.68335     502.1644     407.1114   1426.68335     502.1644     407.1114
   1426.66809     504.9354     409.4208   1426.66809     504.9354     409.4208
   1426.65283     507.3949     411.5254   1426.65283     507.3949     411.5254
   1426.63757     511.2428     414.1299   1426.63757     511.2428     414.1299
   1426.62231     515.9669     422.0033   1426.62231     515.9669     422.0033
   1426.60706     516.6091     419.4128   1426.60706     516.6091     419.4128
   1426.59180     519.5687     421.9795   1426.59180     519.5687     421.9795
   1426.57654     522.0420     423.5694   1426.57654     522.0420     423.5694
   1426.56128     524.9993     427.0817   1426.56128     524.9993     427.0817
   1426.54602     529.0337     429.9759   1426.54602     529.0337     429.9759
   1426.53076     530.0272     432.5266   1426.53076     530.0272     432.5266
   1426.51550     534.3637     435.0017   1426.51550     534.3637     435.0017
   1426.50024     537.7056     437.0377   1426.50024     537.7056     437.0377
   1426.48499     540.1297     439.7068   1426.48499     540.1297     439.7068
   1426.46973     543.4781     442.3784   1426.46973     543.4781     442.3784
   1426.45447     546.2453     445.1196   1426.45447     546.2453     445.1196
   1426.43921     548.3177     447.5914   1426.43921     548.3177     447.5914
   1426.42395     550.9542     449.8954   1426.42395     550.9542     449.8954
   1426.40869     554.8542     452.5507   1426.40869     554.8542     452.5507
   1426.39343     556.9277     454.8057   1426.39343     556.9277     454.8057
   1426.37817     560.6418     458.0566   1426.37817     560.6418     458.0566
   1426.36292     563.8280     459.3857   1426.36292     563.8280     459.3857
   1426.34766     567.4703     462.0248   1426.34766     567.4703     462.0248
   1426.33240     569.1953     464.7046   1426.33240     569.1953     464.7046
   1426.31714     572.2045     467.4002   1426.31714     572.2045     467.4002
   1426.30188     573.9957     469.4667   1426.30188     573.9957     469.4667
   1426.28662     576.3383     471.4622   1426.28662     576.3383     471.4622
   1426.27136     579.3275     474.2464   1426.27136     579.3275     474.2464
   1426.25610     581.9772     476.8696   1426.25610     581.9772     476.8696
   1426.24084     584.6588     479.3330   1426.24084     584.6588     479.3330
   1426.22559     587.8163     480.7692   1426.22559     587.8163     480.7692
   1426.21033     590.7075     484.1201   1426.21033     590.7075     484.1201
   1426.19507     592.9589     485.6551   1426.19507     592.9589     485.6551
   1426.17981     595.5645     489.1071   1426.17981     595.5645     489.1071
   1426.16455     597.7588     491.3035   1426.16455     597.7588     491.3035
   1426.14929     600.5991     493.4270   1426.14929     600.5991     493.4270
   1426.13403     603.3790     495.2153   1426.13403     603.3790     495.2153
   1426.11877     605.2453     497.8693   1426.11877     605.2453     497.8693
   1426.10352     608.1884     500.5093   1426.10352     608.1884     500.5093
   1426.08826     610.8325     501.8370   1426.08826     610.8325     501.8370
   1426.07300     613.4028     503.8074   1426.07300     613.4028     503.8074
   1426.05774     615.3344     506.9524   1426.05774     615.3344     506.9524
   1426.04248     617.3302     508.3671   1426.04248     617.3302     508.3671
   1426.02722     619.8412     511.4436   1426.02722     619.8412     511.4436
   1426.01196     621.6648     513.1608   1426.01196     621.6648     513.1608
   1425.99670     623.5715     514.9591   1425.99670     623.5715     514.9591
   1425.98145     626.8290     516.5309   1425.98145     626.8290     516.5309
   1425.96619     629.1140     519.0516   1425.96619     629.1140     519.0516
   1425.95093     631.4411     521.5518   1425.95093     631.4411     521.5518
   1425.93567     634.0400     523.6819   1425.93567     634.0400     523.6819
   1425.92041     635.7142     525.8691   1425.92041     635.7142     525.8691
   1425.90515     638.1801     526.7351   1425.90515     638.1801     526.7351
   1425.88989     639.5673     529.2587   1425.88989     639.5673     529.2587
   1425.87463     640.7825     530.9105   1425.87463     640.7825     530.9105
   1425.85938     643.5377     532.4660   1425.85938     643.5377     532.4660
   1425.84412     646.0914     534.3186   1425.84412     646.0914     534.3186
   1425.82886     649.0062     536.4419   1425.82886     649.0062     536.4419
   1425.81360     650.2812     537.7770   1425.81360     650.2812     537.7770
   1425.79834     651.5184     539.8530   1425.79834     651.5184     539.8530
   1425.78308     654.4864     541.9109   1425.78308     654.4864     541.9109
   1425.76782     656.2786     544.2322   1425.76782     656.2786     544.2322
   1425.75256     657.9261     545.4128   1425.75256     657.9261     545.4128
   1425.73730     659.5165     547.2308   1425.73730     659.5165     547.2308
   1425.72205     661.8365     548.6469   1425.72205     661.8365     548.6469
   1425.70679     662.3363     550.3038   1425.70679     662.3363     550.3038
   1425.69153     665.1220     553.4169   1425.69153     665.1220     553.4169
   1425.67627     666.8064     554.2318   1425.67627     666.8064     554.2318
   1425.66101     668.8253     555.3510   1425.66101     668.8253     555.3510
   1425.64575     669.1204     556.7963   1425.64575     669.1204     556.7963
   1425.63049     671.6558     559.7819   1425.63049     671.6558     559.7819
   1425.61523     673.0137     559.5322   1425.61523     673.0137     559.5322
   1425.59998     674.4942     561.7228   1425.59998     674.4942     561.7228
   1425.58472     676.7924     562.4211   1425.58472     676.7924     562.4211
   1425.56946     677.1353     564.0657   1425.56946     677.1353     564.0657
   1425.55420     678.7665     566.6293   1425.55420     678.7665     566.6293
   1425.53894     680.8795     567.0083   1425.53894     680.8795     567.0083
   1425.52368     681.8359     569.4806   1425.52368     681.8359     569.4806
   1425.50842     683.1681     569.4811   1425.50842     683.1681     569.4811
   1425.49316     684.6921     571.3491   1425.49316     684.6921     571.3491
   1425.47791     686.2812     571.9793   1425.47791     686.2812     571.9793
   1425.46265     687.3152     574.1710   1425.46265     687.3152     574.1710
   1425.44739     689.2437     575.4078   1425.44739     689.2437     575.4078
   1425.43213     688.9552     576.5979   1425.43213     688.9552     576.5979
   1425.41687     689.3262     578.2054   1425.41687     689.3262     578.2054
   1425.40161     690.9433     577.6758   1425.40161     690.9433     577.6758
   1425.38635     693.4485     581.1410   1425.38635     693.4485     581.1410
   1425.37109     693.5736     581.4609   1425.37109     693.5736     581.4609
   1425.35583     694.7916     582.1942   1425.35583     694.7916     582.1942
   1425.34058     695.8100     582.7534   1425.34058     695.8100     582.7534
   1425.32532     697.3202     584.1494   1425.32532     697.3202     584.1494
   1425.31006     698.9465     585.1945   1425.31006     698.9465     585.1945
   1425.29480     699.3544     586.6350   1425.29480     699.3544     586.6350
   1425.27954     699.7967     587.2546   1425.27954     699.7967     587.2546
   1425.26428     701.1639     589.0708   1425.26428     701.1639     589.0708
   1425.24902     702.5931     589.5391   1425.24902     702.5931     589.5391
   1425.23376     702.5778     590.6072   1425.23376     702.5778     590.6072
   1425.21851     704.1775     591.3517   1425.21851     704.1775     591.3517
   1425.20325     705.3516     592.0684   1425.20325     705.3516     592.0684
   1425.18799     704.4392     593.5855   1425.18799     704.4392     593.5855
   1425.17273     705.3046     593.7328   1425.17273     705.3046     593.7328
   1425.15747     707.9304     595.7507   1425.15747     707.9304     595.7507
   1425.14221     708.7332     595.9321   1425.14221     708.7332     595.9321
   1425.12695     708.6176     596.3054   1425.12695     708.6176     596.3054
   1425.11169     709.0408     597.2598   1425.11169     709.0408     597.2598
   1425.09644     709.7143     597.6532   1425.09644     709.7143     597.6532
   1425.08118     710.0587     598.0469   1425.08118     710.0587     598.0469
   1425.06592     711.2675     599.9218   1425.06592     711.2675     599.9218
   1425.05066     711.6353     600.4233   1425.05066     711.6353     600.4233
   1425.03540     712.3489     600.0669   1425.03540     712.3489     600.0669
   1425.02014     712.3112     601.9473   1425.02014     712.3112     601.9473
   1425.00488     714.2262     602.5043   1425.00488     714.2262     602.5043
   1424.98962     713.6913     602.8439   1424.98962     713.6913     602.8439
   1424.97437     713.5778     603.2408   1424.97437     713.5778     603.2408
   1424.95911     715.0554     602.6496   1424.95911     715.0554     602.6496
   1424.94385     714.2807     604.1312   1424.94385     714.2807     604.1312
   1424.92859     715.2574     603.8248   1424.92859     715.2574     603.8248
   1424.91333     715.5000     604.3981   1424.91333     715.5000     604.3981
   1424.89807     715.0474     605.2892   1424.89807     715.0474     605.2892
   1424.88281     715.1251     606.2081   1424.88281     715.1251     606.2081
   1424.86755     717.5164     606.7870   1424.86755     717.5164     606.7870
   1424.85229     717.3952     606.8345   1424.85229     717.3952     606.8345
   1424.83704     716.4323     606.3595   1424.83704     716.4323     606.3595
   1424.82178     716.8842     608.2621   1424.82178     716.8842     608.2621
   1424.80652     716.3314     606.9340   1424.80652     716.3314     606.9340
   1424.79126     718.1262     607.8293   1424.79126     718.1262     607.8293
   1424.77600     718.0308     607.7322   1424.77600     718.0308     607.7322
   1424.76074     715.4104     607.0643   1424.76074     715.4104     607.0643
   1424.74548     717.8647     609.4228   1424.74548     717.8647     609.4228
   1424.73022     717.6524     608.4518   1424.73022     717.6524     608.4518
   1424.71497     717.9875     610.2228   1424.71497     717.9875     610.2228
   1424.69971     718.4158     608.9871   1424.69971     718.4158     608.9871
   1424.68445     718.6289     609.9151   1424.68445     718.6289     609.9151
   1424.66919     718.2585     610.4452   1424.66919     718.2585     610.4452
   1424.65393     718.5720     610.1124   1424.65393     718.5720     610.1124
   1424.63867     718.4730     608.8395   1424.63867     718.4730     608.8395
   1424.62341     718.3079     610.5994   1424.62341     718.3079     610.5994
   1424.60815     719.4533     610.0739   1424.60815     719.4533     610.0739
   1424.59290     719.6290     610.5435   1424.59290     719.6290     610.5435
   1424.57764     718.3197     610.4285   1424.57764     718.3197     610.4285
   1424.56238     720.1707     608.9457   1424.56238     720.1707     608.9457
   1424.54712     719.6688     609.0950   1424.54712     719.6688     609.0950
   1424.53186     718.2587     609.4475   1424.53186     718.2587     609.4475
   1424.51660     719.3654     609.1299   1424.51660     719.3654     609.1299
   1424.50134     719.6755     607.9769   1424.50134     719.6755     607.9769
   1424.48608     718.0690     609.2593   1424.48608     718.0690     609.2593
   1424.47083     718.7751     609.9943   1424.47083     718.7751     609.9943
   1424.45557     717.5518     609.1561   1424.45557     717.5518     609.1561
   1424.44031     717.5266     609.8483   1424.44031     717.5266     609.8483
   1424.42505     716.9569     608.0773   1424.42505     716.9569     608.0773
   1424.40979     717.1584     608.5453   1424.40979     717.1584     608.5453
   1424.39453     717.6216     608.5349   1424.39453     717.6216     608.5349
   1424.37927     717.4362     608.3597   1424.37927     717.4362     608.3597
   1424.36401     717.9358     608.3065   1424.36401     717.9358     608.3065
   1424.34875     715.9154     606.9288   1424.34875     715.9154     606.9288
   1424.33350     716.3625     607.8057   1424.33350     716.3625     607.8057
   1424.31824     716.7827     607.8391   1424.31824     716.7827     607.8391
   1424.30298     715.6144     607.0671   1424.30298     715.6144     607.0671
   1424.28772     716.4796     607.0967   1424.28772     716.4796     607.0967
   1424.27246     715.0947     605.9789   1424.27246     715.0947     605.9789
   1424.25720     715.5990     605.6539   1424.25720     715.5990     605.6539
   1424.24194     716.2225     605.0394   1424.24194     716.2225     605.0394
   1424.22668     715.9288     606.3480   1424.22668     715.9288     606.3480
   1424.21143     714.5765     604.8026   1424.21143     714.5765     604.8026
   1424.19617     714.2106     605.5023   1424.19617     714.2106     605.5023
   1424.18091     714.0474     603.5082   1424.18091     714.0474     603.5082
   1424.16565     715.1898     603.6541   1424.16565     715.1898     603.6541
   1424.15039     714.0077     603.1588   1424.15039     714.0077     603.1588
   1424.13513     713.4210     603.5126   1424.13513     713.4210     603.5126
   1424.11987     714.1378     602.5788   1424.11987     714.1378     602.5788
   1424.10461     713.1857     601.1798   1424.10461     713.1857     601.1798
   1424.08936     714.2952     602.2547   1424.08936     714.2952     602.2547
   1424.07410     712.1992     601.4204   1424.07410     712.1992     601.4204
   1424.05884     710.8920     600.6892   1424.05884     710.8920     600.6892
   1424.04358     711.2191     600.6116   1424.04358     711.2191     600.6116
   1424.02832     711.2142     599.3596   1424.02832     711.2142     599.3596
   1424.01306     711.1754     599.8386   1424.01306     711.1754     599.8386
   1423.99780     710.8469     599.1387   1423.99780     710.8469     599.1387
   1423.98254     710.8277     597.9489   1423.98254     710.8277     597.9489
   1423.96729     711.0949     598.1389   1423.96729     711.0949     598.1389
   1423.95203     709.6013     597.0602   1423.95203     709.6013     597.0602
   1423.93677     709.6605     597.3812   1423.93677     709.6605     597.3812
   1423.92151     708.0114     596.3864   1423.92151     708.0114     596.3864
   1423.90625     707.8416     594.4257   1423.90625     707.8416     594.4257
   1423.89099     708.0633     595.6425   1423.89099     708.0633     595.6425
   1423.87573     708.1719     594.1785   1423.87573     708.1719     594.1785
   1423.86047     707.8195     594.0503   1423.86047     707.8195     594.0503
   1423.84521     706.3320     593.0684   1423.84521     706.3320     593.0684
   1423.82996     707.6454     592.2986   1423.82996     707.6454     592.2986
   1423.81470     706.9193     591.7114   1423.81470     706.9193     591.7114
   1423.79944     705.9941     590.4782   1423.79944     705.9941     590.4782
   1423.78418     705.8527     591.1246   1423.78418     705.8527     591.1246
   1423.76892     704.5687     589.4966   1423.76892     704.5687     589.4966
   1423.75366     705.7598     589.6526   1423.75366     705.7598     589.6526
   1423.73840     703.6053     589.2275   1423.73840     703.6053     589.2275
   1423.72314     703.2101     587.5815   1423.72314     703.2101     587.5815
   1423.70789     703.5772     587.7787   1423.70789     703.5772     587.7787
   1423.69263     703.7408     586.6132   1423.69263     703.7408     586.6132
   1423.67737     703.3616     586.2556   1423.67737     703.3616     586.2556
   1423.66211     701.9434     585.1837   1423.66211     701.9434     585.1837
   1423.64685     701.4643     584.5181   1423.64685     701.4643     584.5181
   1423.63159     701.0753     583.9880   1423.63159     701.0753     583.9880
   1423.61633     701.1530     583.2039   1423.61633     701.1530     583.2039
   1423.60107     700.4359     581.1368   1423.60107     700.4359     581.1368
   1423.58582     700.4861     581.0244   1423.58582     700.4861     581.0244
   1423.57056     700.4642     580.7828   1423.57056     700.4642     580.7828
   1423.55530     699.6837     580.9304   1423.55530     699.6837     580.9304
   1423.54004     698.3708     579.2939   1423.54004     698.3708     579.2939
   1423.52478     698.1232     578.2559   1423.52478     698.1232     578.2559
   1423.50952     698.2947     578.0121   1423.50952     698.2947     578.0121
   1423.49426     698.1453     576.3679   1423.49426     698.1453     576.3679
   1423.47900     698.8134     577.2481   1423.47900     698.8134     577.2481
   1423.46375     696.6152     575.7104   1423.46375     696.6152     575.7104
   1423.44849     695.6910     575.9285   1423.44849     695.6910     575.9285
   1423.43323     695.6581     574.1384   1423.43323     695.6581     574.1384
   1423.41797     695.7353     573.1514   1423.41797     695.7353     573.1514
   1423.40271     694.9136     572.5942   1423.40271     694.9136     572.5942
   1423.38745     695.2286     571.4556   1423.38745     695.2286     571.4556
   1423.37219     694.7183     570.8369   1423.37219     694.7183     570.8369
   1423.35693     694.9220     570.7966   1423.35693     694.9220     570.7966
   1423.34167     694.0030     569.5634   1423.34167     694.0030     569.5634
   1423.32642     693.1246     568.2576   1423.32642     693.1246     568.2576
   1423.31116     693.4738     566.7514   1423.31116     693.4738     566.7514
   1423.29590     693.5583     565.8452   1423.29590     693.5583     565.8452
   1423.28064     692.0477     565.6907   1423.28064     692.0477     565.6907
   1423.26538     691.8406     564.9363   1423.26538     691.8406     564.9363
   1423.25012     692.8256     564.9259   1423.25012     692.8256     564.9259
   1423.23486     692.5734     563.7056   1423.23486     692.5734     563.7056
   1423.21960     691.1093     562.0120   1423.21960     691.1093     562.0120
   1423.20435     689.9631     562.5280   1423.20435     689.9631     562.5280
   1423.18909     689.2979     561.1280   1423.18909     689.2979     561.1280
   1423.17383     689.6141     560.3790   1423.17383     689.6141     560.3790
   1423.15857     689.0528     559.2548   1423.15857     689.0528     559.2548
   1423.14331     690.0945     558.8163   1423.14331     690.0945     558.8163
   1423.12805     688.4705     558.2117   1423.12805     688.4705     558.2117
   1423.11279     688.8885     556.5256   1423.11279     688.8885     556.5256
   1423.09753     687.8325     556.0722   1423.09753     687.8325     556.0722
   1423.08228     688.1119     554.6501   1423.08228     688.1119     554.6501
   1423.06702     688.3916     554.6808   1423.06702     688.3916     554.6808
   1423.05176     687.6658     553.8044   1423.05176     687.6658     553.8044
   1423.03650     686.6621     553.5737   1423.03650     686.6621     553.5737
   1423.02124     686.2751     551.8455   1423.02124     686.2751     551.8455
   1423.00598     686.5660     550.3866   1423.00598     686.5660     550.3866
   1422.99072     684.9495     550.4534   1422.99072     684.9495     550.4534
   1422.97546     685.3734     549.3022   1422.97546     685.3734     549.3022
   1422.96021     683.6403     548.8363   1422.96021     683.6403     548.8363
   1422.94495     685.2587     547.8409   1422.94495     685.2587     547.8409
   1422.92969     683.9640     547.1303   1422.92969     683.9640     547.1303
   1422.91443     684.1154     545.7923   1422.91443     684.1154     545.7923
   1422.89917     684.4673     545.2569   1422.89917     684.4673     545.2569
   1422.88391     683.5400     543.8374   1422.88391     683.5400     543.8374
   1422.86865     682.5469     543.7936   1422.86865     682.5469     543.7936
   1422.85339     683.5378     543.1019   1422.85339     683.5378     543.1019
   1422.83813     681.3887     542.7582   1422.83813     681.3887     542.7582
   1422.82288     681.9314     540.4215   1422.82288     681.9314     540.4215
   1422.80762     682.5725     540.7101   1422.80762     682.5725     540.7101
   1422.79236     681.5157     539.6136   1422.79236     681.5157     539.6136
   1422.77710     680.2511     539.0355   1422.77710     680.2511     539.0355
   1422.76184     680.4734     538.1008   1422.76184     680.4734     538.1008
   1422.74658     680.7882     537.1979   1422.74658     680.7882     537.1979
   1422.73132     678.8278     535.7065   1422.73132     678.8278     535.7065
   1422.71606     680.7496     534.9083   1422.71606     680.7496     534.9083
   1422.70081     679.2208     534.3370   1422.70081     679.2208     534.3370
   1422.68555     679.2543     533.3379   1422.68555     679.2543     533.3379
   1422.67029     679.0639     532.3384   1422.67029     679.0639     532.3384
   1422.65503     679.1101     531.6816   1422.65503     679.1101     531.6816
   1422.63977     677.9550     530.9115   1422.63977     677.9550     530.9115
   1422.62451     677.7366     529.8798   1422.62451     677.7366     529.8798
   1422.60925     678.0208     529.5765   1422.60925     678.0208     529.5765
   1422.59399     677.9500     528.8243   1422.59399     677.9500     528.8243
   1422.57874     677.3938     527.8892   1422.57874     677.3938     527.8892
   1422.56348     677.1788     527.7138   1422.56348     677.1788     527.7138
   1422.54822     677.9955     525.5234   1422.54822     677.9955     525.5234
   1422.53296     676.2734     523.9866   1422.53296     676.2734     523.9866
   1422.51770     676.0457     524.2087   1422.51770     676.0457     524.2087
   1422.50244     677.0487     523.6061   1422.50244     677.0487     523.6061
   1422.48718     676.1845     522.4304   1422.48718     676.1845     522.4304
   1422.47192     675.3720     522.5824   1422.47192     675.3720     522.5824
   1422.45667     675.2777     521.0088   1422.45667     675.2777     521.0088
   1422.44141     675.2342     520.3691   1422.44141     675.2342     520.3691
   1422.42615     674.2772     519.2056   1422.42615     674.2772     519.2056
   1422.41089     674.1420     518.1122   1422.41089     674.1420     518.1122
   1422.39563     673.9180     517.8928   1422.39563     673.9180     517.8928
   1422.38037     673.3833     516.5950   1422.38037     673.3833     516.5950
   1422.36511     673.6165     515.6384   1422.36511     673.6165     515.6384
   1422.34985     674.0823     515.5760   1422.34985     674.0823     515.5760
   1422.33459     674.0025     513.9743   1422.33459     674.0025     513.9743
   1422.31934     673.0061     512.8798   1422.31934     673.0061     512.8798
   1422.30408     672.1158     511.5541   1422.30408     672.1158     511.5541
   1422.28882     672.0220     512.0147   1422.28882     672.0220     512.0147
   1422.27356     672.3749     510.4044   1422.27356     672.3749     510.4044
   1422.25830     670.9910     510.1544   1422.25830     670.9910     510.1544
   1422.24304     671.4512     509.4908   1422.24304     671.4512     509.4908
   1422.22778     671.5994     508.8939   1422.22778     671.5994     508.8939
   1422.21252     670.8616     507.5980   1422.21252     670.8616     507.5980
   1422.19727     671.3470     506.8869   1422.19727     671.3470     506.8869
   1422.18201     670.4798     506.4678   1422.18201     670.4798     506.4678
   1422.16675     669.7871     504.8718   1422.16675     669.7871     504.8718
   1422.15149     670.7590     504.9088   1422.15149     670.7590     504.9088
   1422.13623     669.7223     503.1697   1422.13623     669.7223     503.1697
   1422.12097     669.4571     502.2401   1422.12097     669.4571     502.2401
   1422.10571     669.5889     501.7401   1422.10571     669.5889     501.7401
   1422.09045     668.8384     500.4446   1422.09045     668.8384     500.4446
   1422.07520     668.2868     500.7778   1422.07520     668.2868     500.7778
   1422.05994     668.2263     499.5216   1422.05994     668.2263     499.5216
   1422.04468     668.8895     498.7325   1422.04468     668.8895     498.7325
   1422.02942     668.9275     497.8851   1422.02942     668.9275     497.8851
   1422.01416     668.4354     496.7770   1422.01416     668.4354     496.7770
   1421.99890     667.3405     496.5675   1421.99890     667.3405     496.5675
   1421.98364     668.2117     495.6053   1421.98364     668.2117     495.6053
   1421.96838     668.4052     494.5964   1421.96838     668.4052     494.5964
   1421.95312     666.6054     493.1436   1421.95312     666.6054     493.1436
   1421.93787     666.2320     493.3206   1421.93787     666.2320     493.3206
   1421.92261     667.1224     491.6284   1421.92261     667.1224     491.6284
   1421.90735     665.8822     491.8182   1421.90735     665.8822     491.8182
   1421.89209     665.6234     490.5055   1421.89209     665.6234     490.5055
   1421.87683     667.0645     490.4538   1421.87683     667.0645     490.4538
   1421.86157     665.4133     488.3622   1421.86157     665.4133     488.3622
   1421.84631     665.4922     487.6092   1421.84631     665.4922     487.6092
   1421.83105     665.3148     487.1437   1421.83105     665.3148     487.1437
   1421.81580     665.4014     485.4323   1421.81580     665.4014     485.4323
   1421.80054     664.1458     485.1791   1421.80054     664.1458     485.1791
   1421.78528     663.5426     484.5089   1421.78528     663.5426     484.5089
   1421.77002     664.1730     483.3087   1421.77002     664.1730     483.3087
   1421.75476     664.5980     483.6133   1421.75476     664.5980     483.6133
   1421.73950     664.6099     482.5083   1421.73950     664.6099     482.5083
   1421.72424     664.7175     481.6577   1421.72424     664.7175     481.6577
   1421.70898     663.2394     480.5648   1421.70898     663.2394     480.5648
   1421.69373     663.5087     480.1367   1421.69373     663.5087     480.1367
   1421.67847     661.6982     479.8693   1421.67847     661.6982     479.8693
   1421.66321     662.5408     478.7423   1421.66321     662.5408     478.7423
   1421.64795     662.7139     477.1844   1421.64795     662.7139     477.1844
   1421.63269     662.7462     476.6855   1421.63269     662.7462     476.6855
   1421.61743     660.7259     475.6129   1421.61743     660.7259     475.6129
   1421.60217     662.2241     474.4644   1421.60217     662.2241     474.4644
   1421.58691     662.3373     474.3557   1421.58691     662.3373     474.3557
   1421.57166     662.4418     474.0657   1421.57166     662.4418     474.0657
   1421.55640     661.7677     472.4532   1421.55640     661.7677     472.4532
   1421.54114     661.1002     471.7867   1421.54114     661.1002     471.7867
   1421.52588     660.9699     471.7168   1421.52588     660.9699     471.7168
   1421.51062     660.7452     470.6088   1421.51062     660.7452     470.6088
   1421.49536     660.7706     469.6675   1421.49536     660.7706     469.6675
   1421.48010     660.8314     468.2831   1421.48010     660.8314     468.2831
   1421.46484     660.1895     467.8851   1421.46484     660.1895     467.8851
   1421.44958     659.2654     467.2897   1421.44958     659.2654     467.2897
   1421.43433     659.2191     467.3925   1421.43433     659.2191     467.3925
   1421.41907     659.6954     465.5247   1421.41907     659.6954     465.5247
   1421.40381     658.0581     464.5754   1421.40381     658.0581     464.5754
   1421.38855     658.4905     463.4428   1421.38855     658.4905     463.4428
   1421.37329     657.4556     464.0485   1421.37329     657.4556     464.0485
   1421.35803     658.6687     462.4870   1421.35803     658.6687     462.4870
   1421.34277     658.6426     462.3693   1421.34277     658.6426     462.3693
   1421.32751     657.5504     461.3597   1421.32751     657.5504     461.3597
   1421.31226     657.7741     460.5717   1421.31226     657.7741     460.5717
   1421.29700     656.1469     459.1424   1421.29700     656.1469     459.1424
   1421.28174     656.3171     458.4008   1421.28174     656.3171     458.4008
   1421.26648     656.9644     456.9572   1421.26648     656.9644     456.9572
   1421.25122     656.4417     456.5692   1421.25122     656.4417     456.5692
   1421.23596     657.1011     456.2084   1421.23596     657.1011     456.2084
   1421.22070     656.6710     454.7331   1421.22070     656.6710     454.7331
   1421.20544     655.9968     454.9875   1421.20544     655.9968     454.9875
   1421.19019     654.6526     453.5506   1421.19019     654.6526     453.5506
   1421.17493     655.0464     452.6194   1421.17493     655.0464     452.6194
   1421.15967     654.9449     451.9609   1421.15967     654.9449     451.9609
   1421.14441     655.2410     451.8251   1421.14441     655.2410     451.8251
   1421.12915     654.2970     450.4793   1421.12915     654.2970     450.4793
   1421.11389     654.4835     450.1095   1421.11389     654.4835     450.1095
   1421.09863     654.6517     449.1742   1421.09863     654.6517     449.1742
   1421.08337     652.9775     448.2851   1421.08337     652.9775     448.2851
   1421.06812     652.9929     447.8247   1421.06812     652.9929     447.8247
   1421.05286     653.8583     446.8850   1421.05286     653.8583     446.8850
   1421.03760     652.0127     445.8170   1421.03760     652.0127     445.8170
   1421.02234     654.0964     445.1120   1421.02234     654.0964     445.1120
   1421.00708     653.0790     444.8637   1421.00708     653.0790     444.8637
   1420.99182     652.9933     443.7212   1420.99182     652.9933     443.7212
   1420.97656     651.4829     443.0375   1420.97656     651.4829     443.0375
   1420.96130     652.2070     442.5298   1420.96130     652.2070     442.5298
   1420.94604     652.3011     441.9827   1420.94604     652.3011     441.9827
   1420.93079     652.2611     440.7456   1420.93079     652.2611     440.7456
   1420.91553     653.0452     440.6028   1420.91553     653.0452     440.6028
   1420.90027     650.8318     439.4570   1420.90027     650.8318     439.4570
   1420.88501     650.6685     438.4370   1420.88501     650.6685     438.4370
   1420.86975     651.4325     437.7094   1420.86975     651.4325     437.7094
   1420.85449     650.8260     437.1792   1420.85449     650.8260     437.1792
   1420.83923     651.0074     436.5958   1420.83923     651.0074     436.5958
   1420.82397     651.7352     435.4247   1420.82397     651.7352     435.4247
   1420.80872     650.9779     435.1971   1420.80872     650.9779     435.1971
   1420.79346     650.3900     434.7791   1420.79346     650.3900     434.7791
   1420.77820     650.2655     434.4850   1420.77820     650.2655     434.4850
   1420.76294     651.1144     433.3215   1420.76294     651.1144     433.3215
   1420.74768     649.4131     432.8263   1420.74768     649.4131     432.8263
   1420.73242     650.5215     432.5923   1420.73242     650.5215     432.5923
   1420.71716     650.0107     431.8394   1420.71716     650.0107     431.8394
   1420.70190     650.3616     430.7019   1420.70190     650.3616     430.7019
   1420.68665     651.3389     430.2250   1420.68665     651.3389     430.2250
   1420.67139     648.9097     430.2798   1420.67139     648.9097     430.2798
   1420.65613     650.3324     429.3873   1420.65613     650.3324     429.3873
   1420.64087     651.4459     429.1882   1420.64087     651.4459     429.1882
   1420.62561     651.2895     428.7368   1420.62561     651.2895     428.7368
   1420.61035     650.9653     427.9594   1420.61035     650.9653     427.9594
   1420.59509     652.7488     427.4859   1420.59509     652.7488     427.4859
   1420.57983     652.2844     429.3684   1420.57983     652.2844     429.3684
   1420.56458     653.4185     428.6670   1420.56458     653.4185     428.6670
   1420.54932     655.2616     429.2122   1420.54932     655.2616     429.2122
   1420.53406     655.5435     429.1920   1420.53406     655.5435     429.1920
   1420.51880     657.2516     428.6802   1420.51880     657.2516     428.6802
   1420.50354     658.3408     428.7510   1420.50354     658.3408     428.7510
   1420.48828     657.6361     428.0661   1420.48828     657.6361     428.0661
   1420.47302     658.6093     428.1924   1420.47302     658.6093     428.1924
   1420.45776     660.6917     428.5649   1420.45776     660.6917     428.5649
   1420.44250     661.8801     429.8132   1420.44250     661.8801     429.8132
   1420.42725     663.8436     429.8233   1420.42725     663.8436     429.8233
   1420.41199     666.5065     430.1377   1420.41199     666.5065     430.1377
   1420.39673     669.3710     433.5333   1420.39673     669.3710     433.5333
   1420.38147     672.1050     433.8199   1420.38147     672.1050     433.8199
   1420.36621     677.8489     437.4335   1420.36621     677.8489     437.4335
   1420.35095     689.0952     442.6064   1420.35095     689.0952     442.6064
   1420.33569     713.8322     456.8839   1420.33569     713.8322     456.8839
   1420.32043     763.7462     488.4820   1420.32043     763.7462     488.4820
   1420.30518     854.4275     542.3536   1420.30518     854.4275     542.3536
   1420.28992     915.5143     580.8674   1420.28992     915.5143     580.8674
   1420.27466     947.6661     599.4426   1420.27466     947.6661     599.4426
   1420.25940    1081.7028     682.5918   1420.25940    1081.7028     682.5918
   1420.24414    1369.6039     861.5460   1420.24414    1369.6039     861.5460
   1420.22888    1547.2975     972.2653   1420.22888    1547.2975     972.2653
   1420.21362    1713.0724    1070.3466   1420.21362    1713.0724    1070.3466
   1420.19836    1756.4840    1097.1757   1420.19836    1756.4840    1097.1757
   1420.18311    1904.3807    1185.7887   1420.18311    1904.3807    1185.7887
   1420.16785    2110.7805    1312.0667   1420.16785    2110.7805    1312.0667
   1420.15259    2235.0657    1385.2866   1420.15259    2235.0657    1385.2866
   1420.13733    2093.2642    1299.9022   1420.13733    2093.2642    1299.9022
   1420.12207    1800.6218    1117.7373   1420.12207    1800.6218    1117.7373
   1420.10681    1572.2997     976.6996   1420.10681    1572.2997     976.6996
   1420.09155    1362.0348     847.2010   1420.09155    1362.0348     847.2010
   1420.07629    1131.7656     706.7465   1420.07629    1131.7656     706.7465
   1420.06104     924.7035     579.8163   1420.06104     924.7035     579.8163
   1420.04578     792.8895     497.7867   1420.04578     792.8895     497.7867
   1420.03052     724.2354     454.7637   1420.03052     724.2354     454.7637
   1420.01526     691.5345     433.7793   1420.01526     691.5345     433.7793
   1420.00000     676.2618     426.0522   1420.00000     676.2618     426.0522
   1419.98474     660.9893     418.3251   1419.98474     660.9893     418.3251
   1419.96948     654.7521     411.7632   1419.96948     654.7521     411.7632
   1419.95422     649.8727     408.0203   1419.95422     649.8727     408.0203
   1419.93896     648.9032     406.2558   1419.93896     648.9032     406.2558
   1419.92371     646.0834     404.3398   1419.92371     646.0834     404.3398
   1419.90845     645.4382     403.4315   1419.90845     645.4382     403.4315
   1419.89319     643.6925     402.7998   1419.89319     643.6925     402.7998
   1419.87793     643.7892     401.8947   1419.87793     643.7892     401.8947
   1419.86267     642.7685     402.0365   1419.86267     642.7685     402.0365
   1419.84741     642.3269     401.1071   1419.84741     642.3269     401.1071
   1419.83215     643.5272     400.8776   1419.83215     643.5272     400.8776
   1419.81689     643.3022     400.0958   1419.81689     643.3022     400.0958
   1419.80164     642.6366     399.3427   1419.80164     642.6366     399.3427
   1419.78638     642.9473     399.9987   1419.78638     642.9473     399.9987
   1419.77112     642.2678     399.3374   1419.77112     642.2678     399.3374
   1419.75586     642.7053     399.3365   1419.75586     642.7053     399.3365
   1419.74060     642.7731     399.2643   1419.74060     642.7731     399.2643
   1419.72534     642.7739     398.0247   1419.72534     642.7739     398.0247
   1419.71008     643.2230     397.7491   1419.71008     643.2230     397.7491
   1419.69482     642.6108     398.0532   1419.69482     642.6108     398.0532
   1419.67957     642.2888     397.4945   1419.67957     642.2888     397.4945
   1419.66431     642.7267     396.9911   1419.66431     642.7267     396.9911
   1419.64905     643.6260     397.1866   1419.64905     643.6260     397.1866
   1419.63379     643.4412     397.0604   1419.63379     643.4412     397.0604
   1419.61853     644.2371     396.8102   1419.61853     644.2371     396.8102
   1419.60327     643.3814     396.3584   1419.60327     643.3814     396.3584
   1419.58801     644.0731     396.5561   1419.58801     644.0731     396.5561
   1419.57275     644.8181     396.6876   1419.57275     644.8181     396.6876
   1419.55750     643.8524     396.0596   1419.55750     643.8524     396.0596
   1419.54224     645.2776     395.9449   1419.54224     645.2776     395.9449
   1419.52698     645.1519     396.5707   1419.52698     645.1519     396.5707
   1419.51172     645.9586     396.0417   1419.51172     645.9586     396.0417
   1419.49646     646.0181     396.1671   1419.49646     646.0181     396.1671
   1419.48120     646.7932     395.7560   1419.48120     646.7932     395.7560
   1419.46594     645.4929     395.5252   1419.46594     645.4929     395.5252
   1419.45068     646.2473     395.6344   1419.45068     646.2473     395.6344
   1419.43542     646.3214     395.7735   1419.43542     646.3214     395.7735
   1419.42017     646.4830     395.6187   1419.42017     646.4830     395.6187
   1419.40491     646.7999     395.9341   1419.40491     646.7999     395.9341
   1419.38965     647.7183     395.4366   1419.38965     647.7183     395.4366
   1419.37439     647.0279     396.0124   1419.37439     647.0279     396.0124
   1419.35913     647.4666     396.0036   1419.35913     647.4666     396.0036
   1419.34387     648.8704     395.0084   1419.34387     648.8704     395.0084
   1419.32861     648.2276     395.8275   1419.32861     648.2276     395.8275
   1419.31335     649.2025     396.6039   1419.31335     649.2025     396.6039
   1419.29810     649.7520     395.8346   1419.29810     649.7520     395.8346
   1419.28284     649.3249     396.2981   1419.28284     649.3249     396.2981
   1419.26758     650.8847     397.0516   1419.26758     650.8847     397.0516
   1419.25232     650.3072     396.4245   1419.25232     650.3072     396.4245
   1419.23706     650.9772     396.8160   1419.23706     650.9772     396.8160
   1419.22180     650.9203     396.6258   1419.22180     650.9203     396.6258
   1419.20654     650.9832     397.2714   1419.20654     650.9832     397.2714
   1419.19128     652.9752     396.6870   1419.19128     652.9752     396.6870
   1419.17603     653.0231     397.0440   1419.17603     653.0231     397.0440
   1419.16077     652.7122     397.2880   1419.16077     652.7122     397.2880
   1419.14551     654.1970     397.2310   1419.14551     654.1970     397.2310
   1419.13025     655.0267     397.3579   1419.13025     655.0267     397.3579
   1419.11499     653.2501     397.8477   1419.11499     653.2501     397.8477
   1419.09973     655.3324     398.4254   1419.09973     655.3324     398.4254
   1419.08447     655.1203     398.0614   1419.08447     655.1203     398.0614
   1419.06921     655.3751     398.8170   1419.06921     655.3751     398.8170
   1419.05396     656.7945     399.0251   1419.05396     656.7945     399.0251
   1419.03870     656.5728     399.5172   1419.03870     656.5728     399.5172
   1419.02344     657.5945     398.9119   1419.02344     657.5945     398.9119
   1419.00818     658.3086     399.9401   1419.00818     658.3086     399.9401
   1418.99292     657.8442     400.6135   1418.99292     657.8442     400.6135
   1418.97766     657.9396     400.1453   1418.97766     657.9396     400.1453
   1418.96240     659.1442     400.6698   1418.96240     659.1442     400.6698
   1418.94714     659.8918     401.2499   1418.94714     659.8918     401.2499
   1418.93188     660.0315     401.7316   1418.93188     660.0315     401.7316
   1418.91663     660.5104     401.6719   1418.91663     660.5104     401.6719
   1418.90137     661.1149     402.7552   1418.90137     661.1149     402.7552
   1418.88611     661.3645     402.8616   1418.88611     661.3645     402.8616
   1418.87085     662.0071     402.9350   1418.87085     662.0071     402.9350
   1418.85559     662.1970     403.6796   1418.85559     662.1970     403.6796
   1418.84033     662.2498     403.6349   1418.84033     662.2498     403.6349
   1418.82507     664.2572     404.4189   1418.82507     664.2572     404.4189
   1418.80981     665.2848     404.9091   1418.80981     665.2848     404.9091
   1418.79456     664.8625     405.9741   1418.79456     664.8625     405.9741
   1418.77930     665.5485     405.8647   1418.77930     665.5485     405.8647
   1418.76404     666.3057     405.9301   1418.76404     666.3057     405.9301
   1418.74878     666.3479     407.0575   1418.74878     666.3479     407.0575
   1418.73352     667.7660     407.3364   1418.73352     667.7660     407.3364
   1418.71826     668.1624     407.8790   1418.71826     668.1624     407.8790
   1418.70300     668.1541     408.2715   1418.70300     668.1541     408.2715
   1418.68774     668.8836     409.3379   1418.68774     668.8836     409.3379
   1418.67249     668.9269     408.4871   1418.67249     668.9269     408.4871
   1418.65723     670.9095     409.9600   1418.65723     670.9095     409.9600
   1418.64197     671.1359     409.9357   1418.64197     671.1359     409.9357
   1418.62671     671.4446     411.3544   1418.62671     671.4446     411.3544
   1418.61145     672.0612     411.6034   1418.61145     672.0612     411.6034
   1418.59619     674.0134     412.0913   1418.59619     674.0134     412.0913
   1418.58093     673.7659     412.4528   1418.58093     673.7659     412.4528
   1418.56567     674.5195     413.1237   1418.56567     674.5195     413.1237
   1418.55042     674.6280     414.2649   1418.55042     674.6280     414.2649
   1418.53516     676.0231     414.8975   1418.53516     676.0231     414.8975
   1418.51990     676.4785     414.7438   1418.51990     676.4785     414.7438
   1418.50464     677.1330     416.2158   1418.50464     677.1330     416.2158
   1418.48938     678.2831     416.6693   1418.48938     678.2831     416.6693
   1418.47412     679.9504     417.5201   1418.47412     679.9504     417.5201
   1418.45886     679.5536     417.9931   1418.45886     679.5536     417.9931
   1418.44360     679.8071     418.5017   1418.44360     679.8071     418.5017
   1418.42834     680.4460     419.9400   1418.42834     680.4460     419.9400
   1418.41309     681.8471     420.5159   1418.41309     681.8471     420.5159
   1418.39783     683.3067     421.6544   1418.39783     683.3067     421.6544
   1418.38257     682.7377     422.1835   1418.38257     682.7377     422.1835
   1418.36731     682.4790     423.1582   1418.36731     682.4790     423.1582
   1418.35205     683.9500     423.6401   1418.35205     683.9500     423.6401
   1418.33679     684.5944     424.1076   1418.33679     684.5944     424.1076
   1418.32153     685.8926     425.1096   1418.32153     685.8926     425.1096
   1418.30627     686.3997     425.4538   1418.30627     686.3997     425.4538
   1418.29102     687.0060     427.0007   1418.29102     687.0060     427.0007
   1418.27576     687.6974     427.5070   1418.27576     687.6974     427.5070
   1418.26050     689.2694     429.0496   1418.26050     689.2694     429.0496
   1418.24524     688.6545     429.1599   1418.24524     688.6545     429.1599
   1418.22998     690.7687     430.1473   1418.22998     690.7687     430.1473
   1418.21472     691.0150     431.1788   1418.21472     691.0150     431.1788
   1418.19946     691.5418     431.9017   1418.19946     691.5418     431.9017
   1418.18420     691.5087     432.4963   1418.18420     691.5087     432.4963
   1418.16895     692.4949     433.6414   1418.16895     692.4949     433.6414
   1418.15369     694.9668     435.2135   1418.15369     694.9668     435.2135
   1418.13843     694.2568     435.7850   1418.13843     694.2568     435.7850
   1418.12317     696.0135     436.3417   1418.12317     696.0135     436.3417
   1418.10791     696.3686     438.4194   1418.10791     696.3686     438.4194
   1418.09265     697.8448     438.1236   1418.09265     697.8448     438.1236
   1418.07739     698.0606     439.1111   1418.07739     698.0606     439.1111
   1418.06213     698.4233     440.5639   1418.06213     698.4233     440.5639
   1418.04688     699.7943     440.7471   1418.04688     699.7943     440.7471
   1418.03162     700.6130     442.1482   1418.03162     700.6130     442.1482
   1418.01636     701.1155     443.2239   1418.01636     701.1155     443.2239
   1418.00110     702.1930     444.0063   1418.00110     702.1930     444.0063
   1417.98584     703.6537     445.0082   1417.98584     703.6537     445.0082
   1417.97058     703.3535     446.4200   1417.97058     703.3535     446.4200
   1417.95532     704.5696     447.3603   1417.95532     704.5696     447.3603
   1417.94006     705.1445     448.5829   1417.94006     705.1445     448.5829
   1417.92480     706.4135     449.8559   1417.92480     706.4135     449.8559
   1417.90955     706.9172     450.4144   1417.90955     706.9172     450.4144
   1417.89429     709.0126     450.8520   1417.89429     709.0126     450.8520
   1417.87903     708.1496     452.5461   1417.87903     708.1496     452.5461
   1417.86377     710.3174     453.7335   1417.86377     710.3174     453.7335
   1417.84851     710.3842     454.8760   1417.84851     710.3842     454.8760
   1417.83325     711.1411     455.7059   1417.83325     711.1411     455.7059
   1417.81799     711.9473     456.7417   1417.81799     711.9473     456.7417
   1417.80273     712.8154     458.1208   1417.80273     712.8154     458.1208
   1417.78748     712.8628     458.3509   1417.78748     712.8628     458.3509
   1417.77222     712.9072     459.3022   1417.77222     712.9072     459.3022
   1417.75696     714.4273     461.6551   1417.75696     714.4273     461.6551
   1417.74170     716.2296     462.5881   1417.74170     716.2296     462.5881
   1417.72644     717.5520     462.8981   1417.72644     717.5520     462.8981
   1417.71118     717.6330     464.2917   1417.71118     717.6330     464.2917
   1417.69592     717.9889     465.8889   1417.69592     717.9889     465.8889
   1417.68066     719.1567     466.7777   1417.68066     719.1567     466.7777
   1417.66541     721.1667     467.5972   1417.66541     721.1667     467.5972
   1417.65015     720.6887     469.3221   1417.65015     720.6887     469.3221
   1417.63489     721.3960     469.6772   1417.63489     721.3960     469.6772
   1417.61963     722.1764     471.0213   1417.61963     722.1764     471.0213
   1417.60437     722.7859     472.7168   1417.60437     722.7859     472.7168
   1417.58911     726.2019     473.5061   1417.58911     726.2019     473.5061
   1417.57385     723.7198     474.5952   1417.57385     723.7198     474.5952
   1417.55859     725.5400     475.6458   1417.55859     725.5400     475.6458
   1417.54333     727.4650     476.3627   1417.54333     727.4650     476.3627
   1417.52808     727.5500     477.5908   1417.52808     727.5500     477.5908
   1417.51282     729.3153     479.3909   1417.51282     729.3153     479.3909
   1417.49756     729.3970     479.6378   1417.49756     729.3970     479.6378
   1417.48230     729.0152     481.2902   1417.48230     729.0152     481.2902
   1417.46704     730.5037     482.5666   1417.46704     730.5037     482.5666
   1417.45178     730.0326     483.3225   1417.45178     730.0326     483.3225
   1417.43652     731.5061     485.4760   1417.43652     731.5061     485.4760
   1417.42126     733.2645     486.5312   1417.42126     733.2645     486.5312
   1417.40601     733.2435     487.3489   1417.40601     733.2435     487.3489
   1417.39075     734.1296     487.9384   1417.39075     734.1296     487.9384
   1417.37549     735.4501     489.3847   1417.37549     735.4501     489.3847
   1417.36023     734.9882     490.1740   1417.36023     734.9882     490.1740
   1417.34497     737.2465     491.7686   1417.34497     737.2465     491.7686
   1417.32971     736.0427     492.4366   1417.32971     736.0427     492.4366
   1417.31445     736.6840     494.0950   1417.31445     736.6840     494.0950
   1417.29919     737.1171     496.0967   1417.29919     737.1171     496.0967
   1417.28394     737.7028     496.6347   1417.28394     737.7028     496.6347
   1417.26868     739.6520     497.7285   1417.26868     739.6520     497.7285
   1417.25342     739.8100     498.5842   1417.25342     739.8100     498.5842
   1417.23816     739.6046     499.8854   1417.23816     739.6046     499.8854
   1417.22290     744.2203     501.2874   1417.22290     744.2203     501.2874
   1417.20764     741.8846     502.1118   1417.20764     741.8846     502.1118
   1417.19238     740.8546     503.5956   1417.19238     740.8546     503.5956
   1417.17712     743.5889     503.3799   1417.17712     743.5889     503.3799
   1417.16187     741.8324     505.4218   1417.16187     741.8324     505.4218
   1417.14661     743.6938     506.6603   1417.14661     743.6938     506.6603
   1417.13135     743.5865     507.8611   1417.13135     743.5865     507.8611
   1417.11609     744.6332     508.0487   1417.11609     744.6332     508.0487
   1417.10083     746.4791     509.8669   1417.10083     746.4791     509.8669
   1417.08557     745.2328     510.0761   1417.08557     745.2328     510.0761
   1417.07031     745.6790     511.3589   1417.07031     745.6790     511.3589
   1417.05505     747.8562     512.2589   1417.05505     747.8562     512.2589
   1417.03979     748.7702     512.9717   1417.03979     748.7702     512.9717
   1417.02454     746.9379     513.9167   1417.02454     746.9379     513.9167
   1417.00928     748.0853     515.5296   1417.00928     748.0853     515.5296
   1416.99402     748.9030     515.6473   1416.99402     748.9030     515.6473
   1416.97876     748.5546     517.2731   1416.97876     748.5546     517.2731
   1416.96350     748.5267     517.9598   1416.96350     748.5267     517.9598
   1416.94824     750.0099     517.7908   1416.94824     750.0099     517.7908
   1416.93298     750.3303     519.0186   1416.93298     750.3303     519.0186
   1416.91772     750.3738     520.5157   1416.91772     750.3738     520.5157
   1416.90247     751.4839     521.3895   1416.90247     751.4839     521.3895
   1416.88721     751.9246     522.1353   1416.88721     751.9246     522.1353
   1416.87195     752.1743     522.6683   1416.87195     752.1743     522.6683
   1416.85669     751.4940     523.9742   1416.85669     751.4940     523.9742
   1416.84143     752.6161     524.6752   1416.84143     752.6161     524.6752
   1416.82617     750.0295     524.4438   1416.82617     750.0295     524.4438
   1416.81091     751.7848     525.3840   1416.81091     751.7848     525.3840
   1416.79565     752.8077     526.5892   1416.79565     752.8077     526.5892
   1416.78040     753.2665     526.0556   1416.78040     753.2665     526.0556
   1416.76514     753.6037     527.1876   1416.76514     753.6037     527.1876
   1416.74988     751.0552     528.3337   1416.74988     751.0552     528.3337
   1416.73462     753.6163     528.2370   1416.73462     753.6163     528.2370
   1416.71936     752.4314     528.7028   1416.71936     752.4314     528.7028
   1416.70410     754.0477     529.2273   1416.70410     754.0477     529.2273
   1416.68884     753.6432     530.3916   1416.68884     753.6432     530.3916
   1416.67358     753.2644     530.3041   1416.67358     753.2644     530.3041
   1416.65833     753.1472     530.1717   1416.65833     753.1472     530.1717
   1416.64307     753.6372     532.1539   1416.64307     753.6372     532.1539
   1416.62781     754.2233     532.0159   1416.62781     754.2233     532.0159
   1416.61255     753.0716     532.9202   1416.61255     753.0716     532.9202
   1416.59729     754.6335     532.7606   1416.59729     754.6335     532.7606
   1416.58203     754.2468     534.4637   1416.58203     754.2468     534.4637
   1416.56677     754.5697     533.9613   1416.56677     754.5697     533.9613
   1416.55151     753.3416     533.8807   1416.55151     753.3416     533.8807
   1416.53625     752.3434     534.1207   1416.53625     752.3434     534.1207
   1416.52100     753.9251     534.2595   1416.52100     753.9251     534.2595
   1416.50574     753.5883     534.3259   1416.50574     753.5883     534.3259
   1416.49048     753.7028     533.9960   1416.49048     753.7028     533.9960
   1416.47522     752.2595     535.0024   1416.47522     752.2595     535.0024
   1416.45996     752.9127     535.3363   1416.45996     752.9127     535.3363
   1416.44470     753.3243     534.4797   1416.44470     753.3243     534.4797
   1416.42944     752.9051     535.3494   1416.42944     752.9051     535.3494
   1416.41418     751.1704     534.8455   1416.41418     751.1704     534.8455
   1416.39893     751.5853     534.6769   1416.39893     751.5853     534.6769
   1416.38367     751.1749     535.7925   1416.38367     751.1749     535.7925
   1416.36841     750.4382     534.7222   1416.36841     750.4382     534.7222
   1416.35315     749.5563     534.2425   1416.35315     749.5563     534.2425
   1416.33789     751.8756     534.0474   1416.33789     751.8756     534.0474
   1416.32263     750.8147     533.9421   1416.32263     750.8147     533.9421
   1416.30737     748.9940     534.4590   1416.30737     748.9940     534.4590
   1416.29211     749.6130     533.3865   1416.29211     749.6130     533.3865
   1416.27686     748.8764     533.7132   1416.27686     748.8764     533.7132
   1416.26160     748.2114     533.8820   1416.26160     748.2114     533.8820
   1416.24634     748.0129     533.2077   1416.24634     748.0129     533.2077
   1416.23108     747.5204     532.9649   1416.23108     747.5204     532.9649
   1416.21582     745.7231     532.2932   1416.21582     745.7231     532.2932
   1416.20056     745.4935     532.0168   1416.20056     745.4935     532.0168
   1416.18530     746.3564     532.4871   1416.18530     746.3564     532.4871
   1416.17004     745.9254     531.6463   1416.17004     745.9254     531.6463
   1416.15479     746.4423     532.0858   1416.15479     746.4423     532.0858
   1416.13953     745.3297     531.2554   1416.13953     745.3297     531.2554
   1416.12427     744.6719     531.6757   1416.12427     744.6719     531.6757
   1416.10901     743.6467     530.3950   1416.10901     743.6467     530.3950
   1416.09375     742.8237     529.6107   1416.09375     742.8237     529.6107
   1416.07849     744.5248     530.4448   1416.07849     744.5248     530.4448
   1416.06323     742.0358     528.5767   1416.06323     742.0358     528.5767
   1416.04797     741.9515     528.1035   1416.04797     741.9515     528.1035
   1416.03271     741.0001     529.0810   1416.03271     741.0001     529.0810
   1416.01746     740.3030     527.5267   1416.01746     740.3030     527.5267
   1416.00220     738.3713     525.8316   1416.00220     738.3713     525.8316
   1415.98694     739.0104     526.0125   1415.98694     739.0104     526.0125
   1415.97168     739.2816     525.4702   1415.97168     739.2816     525.4702
   1415.95642     738.7294     525.0536   1415.95642     738.7294     525.0536
   1415.94116     737.4972     525.3361   1415.94116     737.4972     525.3361
   1415.92590     737.9332     524.2000   1415.92590     737.9332     524.2000
   1415.91064     735.4485     523.2343   1415.91064     735.4485     523.2343
   1415.89539     735.5316     522.2556   1415.89539     735.5316     522.2556
   1415.88013     735.3380     521.0954   1415.88013     735.3380     521.0954
   1415.86487     734.6436     520.8677   1415.86487     734.6436     520.8677
   1415.84961     733.4272     520.5721   1415.84961     733.4272     520.5721
   1415.83435     732.3033     520.1431   1415.83435     732.3033     520.1431
   1415.81909     732.2155     520.6492   1415.81909     732.2155     520.6492
   1415.80383     731.1109     518.3959   1415.80383     731.1109     518.3959
   1415.78857     730.4419     517.3048   1415.78857     730.4419     517.3048
   1415.77332     729.7315     516.9741   1415.77332     729.7315     516.9741
   1415.75806     728.7386     515.9623   1415.75806     728.7386     515.9623
   1415.74280     727.6412     516.2543   1415.74280     727.6412     516.2543
   1415.72754     728.2201     514.7665   1415.72754     728.2201     514.7665
   1415.71228     726.1165     513.7862   1415.71228     726.1165     513.7862
   1415.69702     726.6273     512.4106   1415.69702     726.6273     512.4106
   1415.68176     724.3015     512.8624   1415.68176     724.3015     512.8624
   1415.66650     724.2131     512.3947   1415.66650     724.2131     512.3947
   1415.65125     723.9051     510.9227   1415.65125     723.9051     510.9227
   1415.63599     723.2758     510.7760   1415.63599     723.2758     510.7760
   1415.62073     721.3799     509.0585   1415.62073     721.3799     509.0585
   1415.60547     720.8895     508.4243   1415.60547     720.8895     508.4243
   1415.59021     720.2775     507.9667   1415.59021     720.2775     507.9667
   1415.57495     717.7336     506.5721   1415.57495     717.7336     506.5721
   1415.55969     718.4274     506.4035   1415.55969     718.4274     506.4035
   1415.54443     716.5311     505.9868   1415.54443     716.5311     505.9868
   1415.52917     715.5725     504.3001   1415.52917     715.5725     504.3001
   1415.51392     715.2121     503.4806   1415.51392     715.2121     503.4806
   1415.49866     713.8356     502.3902   1415.49866     713.8356     502.3902
   1415.48340     713.7501     502.4323   1415.48340     713.7501     502.4323
   1415.46814     710.6099     501.1043   1415.46814     710.6099     501.1043
   1415.45288     711.7928     499.6576   1415.45288     711.7928     499.6576
   1415.43762     710.8469     499.0416   1415.43762     710.8469     499.0416
   1415.42236     709.1859     498.4086   1415.42236     709.1859     498.4086
   1415.40710     708.7307     496.8448   1415.40710     708.7307     496.8448
   1415.39185     707.3973     495.7890   1415.39185     707.3973     495.7890
   1415.37659     706.1983     495.2531   1415.37659     706.1983     495.2531
   1415.36133     705.7249     494.8465   1415.36133     705.7249     494.8465
   1415.34607     703.1964     492.7526   1415.34607     703.1964     492.7526
   1415.33081     702.5390     491.9423   1415.33081     702.5390     491.9423
   1415.31555     701.8774     491.5533   1415.31555     701.8774     491.5533
   1415.30029     699.9261     490.7215   1415.30029     699.9261     490.7215
   1415.28503     698.5649     489.6977   1415.28503     698.5649     489.6977
   1415.26978     698.2346     488.6266   1415.26978     698.2346     488.6266
   1415.25452     697.0187     486.5140   1415.25452     697.0187     486.5140
   1415.23926     695.7413     485.4426   1415.23926     695.7413     485.4426
   1415.22400     694.5778     485.1209   1415.22400     694.5778     485.1209
   1415.20874     693.4893     484.7677   1415.20874     693.4893     484.7677
   1415.19348     693.4861     483.8356   1415.19348     693.4861     483.8356
   1415.17822     692.3128     482.5279   1415.17822     692.3128     482.5279
   1415.16296     690.0949     480.6815   1415.16296     690.0949     480.6815
   1415.14771     689.0845     479.7953   1415.14771     689.0845     479.7953
   1415.13245     686.4597     479.0629   1415.13245     686.4597     479.0629
   1415.11719     685.7743     478.0608   1415.11719     685.7743     478.0608
   1415.10193     683.9546     476.7010   1415.10193     683.9546     476.7010
   1415.08667     682.7858     475.8114   1415.08667     682.7858     475.8114
   1415.07141     680.6121     474.3017   1415.07141     680.6121     474.3017
   1415.05615     680.7754     474.4019   1415.05615     680.7754     474.4019
   1415.04089     679.5228     472.5646   1415.04089     679.5228     472.5646
   1415.02563     677.1319     471.8211   1415.02563     677.1319     471.8211
   1415.01038     677.0315     469.6075   1415.01038     677.0315     469.6075
   1414.99512     674.1645     469.8349   1414.99512     674.1645     469.8349
   1414.97986     673.8625     467.1645   1414.97986     673.8625     467.1645
   1414.96460     671.4690     467.0453   1414.96460     671.4690     467.0453
   1414.94934     670.4037     465.6788   1414.94934     670.4037     465.6788
   1414.93408     668.6344     463.9088   1414.93408     668.6344     463.9088
   1414.91882     667.1407     463.0226   1414.91882     667.1407     463.0226
   1414.90356     664.5309     461.3889   1414.90356     664.5309     461.3889
   1414.88831     664.2985     461.0671   1414.88831     664.2985     461.0671
   1414.87305     661.4822     458.6672   1414.87305     661.4822     458.6672
   1414.85779     660.5920     458.6951   1414.85779     660.5920     458.6951
   1414.84253     658.4303     456.2961   1414.84253     658.4303     456.2961
   1414.82727     656.5945     455.0532   1414.82727     656.5945     455.0532
   1414.81201     654.4672     454.0615   1414.81201     654.4672     454.0615
   1414.79675     653.8738     452.8410   1414.79675     653.8738     452.8410
   1414.78149     651.2363     450.6688   1414.78149     651.2363     450.6688
   1414.76624     650.0873     450.6661   1414.76624     650.0873     450.6661
   1414.75098     648.7402     449.3661   1414.75098     648.7402     449.3661
   1414.73572     646.9213     448.0543   1414.73572     646.9213     448.0543
   1414.72046     644.4870     446.7682   1414.72046     644.4870     446.7682
   1414.70520     643.1379     445.0143   1414.70520     643.1379     445.0143
   1414.68994     641.4905     444.1449   1414.68994     641.4905     444.1449
   1414.67468     640.0572     443.1721   1414.67468     640.0572     443.1721
   1414.65942     637.7663     441.1695   1414.65942     637.7663     441.1695
   1414.64417     636.0860     440.4160   1414.64417     636.0860     440.4160
   1414.62891     632.9461     438.5005   1414.62891     632.9461     438.5005
   1414.61365     632.4261     436.8451   1414.61365     632.4261     436.8451
   1414.59839     630.2100     435.5315   1414.59839     630.2100     435.5315
   1414.58313     628.0941     434.6483   1414.58313     628.0941     434.6483
   1414.56787     626.5101     433.0888   1414.56787     626.5101     433.0888
   1414.55261     624.8417     431.1161   1414.55261     624.8417     431.1161
   1414.53735     621.6907     430.3768   1414.53735     621.6907     430.3768
   1414.52209     620.0102     428.5006   1414.52209     620.0102     428.5006
   1414.50684     617.5459     427.4427   1414.50684     617.5459     427.4427
   1414.49158     615.4783     425.6465   1414.49158     615.4783     425.6465
   1414.47632     613.6607     424.2250   1414.47632     613.6607     424.2250
   1414.46106     611.6082     421.8789   1414.46106     611.6082     421.8789
   1414.44580     609.6266     421.4589   1414.44580     609.6266     421.4589
   1414.43054     607.7094     419.7271   1414.43054     607.7094     419.7271
   1414.41528     605.3434     418.5141   1414.41528     605.3434     418.5141
   1414.40002     603.0219     416.1208   1414.40002     603.0219     416.1208
   1414.38477     601.3865     415.4777   1414.38477     601.3865     415.4777
   1414.36951     599.0586     413.9955   1414.36951     599.0586     413.9955
   1414.35425     597.2793     412.0819   1414.35425     597.2793     412.0819
   1414.33899     594.9767     411.5063   1414.33899     594.9767     411.5063
   1414.32373     592.8105     409.0951   1414.32373     592.8105     409.0951
   1414.30847     589.6742     407.8567   1414.30847     589.6742     407.8567
   1414.29321     587.1035     406.5428   1414.29321     587.1035     406.5428
   1414.27795     585.8366     404.4181   1414.27795     585.8366     404.4181
   1414.26270     582.9460     403.4348   1414.26270     582.9460     403.4348
   1414.24744     581.0543     401.9963   1414.24744     581.0543     401.9963
   1414.23218     578.5618     400.6710   1414.23218     578.5618     400.6710
   1414.21692     575.4237     398.6864   1414.21692     575.4237     398.6864
   1414.20166     573.0819     396.3718   1414.20166     573.0819     396.3718
   1414.18640     570.8023     395.2674   1414.18640     570.8023     395.2674
   1414.17114     569.0842     393.0691   1414.17114     569.0842     393.0691
   1414.15588     566.4011     392.6750   1414.15588     566.4011     392.6750
   1414.14062     564.8806     390.6109   1414.14062     564.8806     390.6109
   1414.12537     561.5712     388.3794   1414.12537     561.5712     388.3794
   1414.11011     559.3865     387.3749   1414.11011     559.3865     387.3749
   1414.09485     556.4989     385.5702   1414.09485     556.4989     385.5702
   1414.07959     554.1816     383.7159   1414.07959     554.1816     383.7159
   1414.06433     552.0840     381.4449   1414.06433     552.0840     381.4449
   1414.04907     548.3694     380.4503   1414.04907     548.3694     380.4503
   1414.03381     547.4123     379.1413   1414.03381     547.4123     379.1413
   1414.01855     545.3640     377.9391   1414.01855     545.3640     377.9391
   1414.00330     562.7553     380.2302   1414.00330     562.7553     380.2302
   1413.98804     540.5576     374.2528   1413.98804     540.5576     374.2528
   1413.97278     537.9405     372.5261   1413.97278     537.9405     372.5261
   1413.95752     534.1871     370.6198   1413.95752     534.1871     370.6198
   1413.94226     530.7084     368.7540   1413.94226     530.7084     368.7540
   1413.92700     528.7487     367.6193   1413.92700     528.7487     367.6193
   1413.91174     527.2225     365.7634   1413.91174     527.2225     365.7634
   1413.89648     524.3710     363.3542   1413.89648     524.3710     363.3542
   1413.88123     521.5681     362.1070   1413.88123     521.5681     362.1070
   1413.86597     518.4307     360.3169   1413.86597     518.4307     360.3169
   1413.85071     515.6921     358.9120   1413.85071     515.6921     358.9120
   1413.83545     513.1951     357.3086   1413.83545     513.1951     357.3086
   1413.82019     510.4771     355.9020   1413.82019     510.4771     355.9020
   1413.80493     508.7569     353.9896   1413.80493     508.7569     353.9896
   1413.78967     505.7493     352.8394   1413.78967     505.7493     352.8394
   1413.77441     502.9554     350.6911   1413.77441     502.9554     350.6911
   1413.75916     500.7133     349.2166   1413.75916     500.7133     349.2166
   1413.74390     497.5531     347.9767   1413.74390     497.5531     347.9767
   1413.72864     495.1197     345.7344   1413.72864     495.1197     345.7344
   1413.71338     492.9937     344.4818   1413.71338     492.9937     344.4818
   1413.69812     489.7439     342.9834   1413.69812     489.7439     342.9834
   1413.68286     487.3064     341.0048   1413.68286     487.3064     341.0048
   1413.66760     484.4733     339.0343   1413.66760     484.4733     339.0343
   1413.65234     481.9536     337.8617   1413.65234     481.9536     337.8617
   1413.63708     479.4665     336.0446   1413.63708     479.4665     336.0446
   1413.62183     477.3663     334.4561   1413.62183     477.3663     334.4561
   1413.60657     474.8513     332.4414   1413.60657     474.8513     332.4414
   1413.59131     471.9641     331.4407   1413.59131     471.9641     331.4407
   1413.57605     469.3779     329.8502   1413.57605     469.3779     329.8502
   1413.56079     466.7609     327.9224   1413.56079     466.7609     327.9224
   1413.54553     463.8437     325.6428   1413.54553     463.8437     325.6428
   1413.53027     462.0037     324.6022   1413.53027     462.0037     324.6022
   1413.51501     459.6028     323.0750   1413.51501     459.6028     323.0750
   1413.49976     456.7950     321.9867   1413.49976     456.7950     321.9867
   1413.48450     454.4052     320.3394   1413.48450     454.4052     320.3394
   1413.46924     451.8434     318.8177   1413.46924     451.8434     318.8177
   1413.45398     449.6597     316.6476   1413.45398     449.6597     316.6476
   1413.43872     446.0840     315.3468   1413.43872     446.0840     315.3468
   1413.42346     444.5471     313.9243   1413.42346     444.5471     313.9243
   1413.40820     441.8563     312.6362   1413.40820     441.8563     312.6362
   1413.39294     438.9876     310.5492   1413.39294     438.9876     310.5492
   1413.37769     437.0084     309.1533   1413.37769     437.0084     309.1533
   1413.36243     435.3119     307.3111   1413.36243     435.3119     307.3111
   1413.34717     431.8445     306.2616   1413.34717     431.8445     306.2616
   1413.33191     430.1697     304.6814   1413.33191     430.1697     304.6814
   1413.31665     427.7268     303.6267   1413.31665     427.7268     303.6267
   1413.30139     425.0374     301.7451   1413.30139     425.0374     301.7451
   1413.28613     422.7477     300.4809   1413.28613     422.7477     300.4809
   1413.27087     420.9375     298.9838   1413.27087     420.9375     298.9838
   1413.25562     418.0543     297.6509   1413.25562     418.0543     297.6509
   1413.24036     415.7990     296.1369   1413.24036     415.7990     296.1369
   1413.22510     413.1824     294.7641   1413.22510     413.1824     294.7641
   1413.20984     411.6185     293.8894   1413.20984     411.6185     293.8894
   1413.19458     409.2445     291.8943   1413.19458     409.2445     291.8943
   1413.17932     407.3315     290.8340   1413.17932     407.3315     290.8340
   1413.16406     404.8634     289.9566   1413.16406     404.8634     289.9566
   1413.14880     402.4654     288.2185   1413.14880     402.4654     288.2185
   1413.13354     400.3040     287.3167   1413.13354     400.3040     287.3167
   1413.11829     398.5663     286.0314   1413.11829     398.5663     286.0314
   1413.10303     396.6335     284.6255   1413.10303     396.6335     284.6255
   1413.08777     394.5591     283.1772   1413.08777     394.5591     283.1772
   1413.07251     392.5863     281.7214   1413.07251     392.5863     281.7214
   1413.05725     390.8079     280.8081   1413.05725     390.8079     280.8081
   1413.04199     388.6049     279.8405   1413.04199     388.6049     279.8405
   1413.02673     386.4714     278.6626   1413.02673     386.4714     278.6626
   1413.01147     384.9032     277.9634   1413.01147     384.9032     277.9634
   1412.99622     382.9052     276.4622   1412.99622     382.9052     276.4622
   1412.98096     381.0382     275.7932   1412.98096     381.0382     275.7932
   1412.96570     379.5318     274.8097   1412.96570     379.5318     274.8097
   1412.95044     377.7534     273.1737   1412.95044     377.7534     273.1737
   1412.93518     375.8338     272.6393   1412.93518     375.8338     272.6393
   1412.91992     374.1393     272.0093   1412.91992     374.1393     272.0093
   1412.90466     373.0364     271.2283   1412.90466     373.0364     271.2283
   1412.88940     371.1289     269.9342   1412.88940     371.1289     269.9342
   1412.87415     370.3916     269.1203   1412.87415     370.3916     269.1203
   1412.85889     368.1034     267.9817   1412.85889     368.1034     267.9817
   1412.84363     366.7660     267.7907   1412.84363     366.7660     267.7907
   1412.82837     365.5259     266.3112   1412.82837     365.5259     266.3112
   1412.81311     363.9962     266.3521   1412.81311     363.9962     266.3521
   1412.79785     361.8482     265.1538   1412.79785     361.8482     265.1538
   1412.78259     361.3410     265.0905   1412.78259     361.3410     265.0905
   1412.76733     359.9113     264.0837   1412.76733     359.9113     264.0837
   1412.75208     358.8789     262.8907   1412.75208     358.8789     262.8907
   1412.73682     357.1453     262.7724   1412.73682     357.1453     262.7724
   1412.72156     356.9105     262.1464   1412.72156     356.9105     262.1464
   1412.70630     356.0395     261.6300   1412.70630     356.0395     261.6300
   1412.69104     354.0823     260.9870   1412.69104     354.0823     260.9870
   1412.67578     353.8696     260.8736   1412.67578     353.8696     260.8736
   1412.66052     352.6413     259.9759   1412.66052     352.6413     259.9759
   1412.64526     351.2910     259.2071   1412.64526     351.2910     259.2071
   1412.63000     350.2155     259.4015   1412.63000     350.2155     259.4015
   1412.61475     349.6373     259.4489   1412.61475     349.6373     259.4489
   1412.59949     348.8623     258.5083   1412.59949     348.8623     258.5083
   1412.58423     348.2323     258.4840   1412.58423     348.2323     258.4840
   1412.56897     347.7906     258.3908   1412.56897     347.7906     258.3908
   1412.55371     347.5023     258.0855   1412.55371     347.5023     258.0855
   1412.53845     346.6295     257.4710   1412.53845     346.6295     257.4710
   1412.52319     345.8941     257.4981   1412.52319     345.8941     257.4981
   1412.50793     345.4128     257.5438   1412.50793     345.4128     257.5438
   1412.49268     345.0597     257.9053   1412.49268     345.0597     257.9053
   1412.47742     344.3117     257.9039   1412.47742     344.3117     257.9039
   1412.46216     344.7118     257.9354   1412.46216     344.7118     257.9354
   1412.44690     343.9673     257.7237   1412.44690     343.9673     257.7237
   1412.43164     343.9042     257.9530   1412.43164     343.9042     257.9530
   1412.41638     343.7073     257.9297   1412.41638     343.7073     257.9297
   1412.40112     343.1077     258.2160   1412.40112     343.1077     258.2160
   1412.38586     343.4722     258.0573   1412.38586     343.4722     258.0573
   1412.37061     343.7067     258.5131   1412.37061     343.7067     258.5131
   1412.35535     343.7757     259.0903   1412.35535     343.7757     259.0903
   1412.34009     343.7130     259.4609   1412.34009     343.7130     259.4609
   1412.32483     343.7195     259.6051   1412.32483     343.7195     259.6051
   1412.30957     344.5978     260.3594   1412.30957     344.5978     260.3594
   1412.29431     344.2853     260.4273   1412.29431     344.2853     260.4273
   1412.27905     344.3006     260.9554   1412.27905     344.3006     260.9554
   1412.26379     345.3817     261.3436   1412.26379     345.3817     261.3436
   1412.24854     345.3862     262.1284   1412.24854     345.3862     262.1284
   1412.23328     345.0912     262.7244   1412.23328     345.0912     262.7244
   1412.21802     346.1660     263.1380   1412.21802     346.1660     263.1380
   1412.20276     346.4703     264.1925   1412.20276     346.4703     264.1925