#     FILENAME=!Skynet_57528_lach-hhg-114_20385_20938.cyb.fits
#     BASENAME=Skynet_57528_lach-hhg-114_20385_20938
#     SRC_NAME=lach-hhg-114
#     OBSERVER=hhgmadison16_9500
#     DATE_OBS=2016-05-20T16:25:42.430
#        OBSID=20385
#      SCANNUM=20938
#          MJD=57528.6856
#          UTC=59231
#     SCANTYPE=track
#     DATAMODE=HIRES
#     TUNEFREQ=1420.0000
# Actual_FREQ1=1420.0000
# Actual_FREQ2=1420.0000
#    LO1Tuning=6870.000
#     RFFILTER=1355_1435
#        OBSBW=-15.6250
#        NCHAN=1024 
#        FOCUS=37.0709
#           RA=23:35:25.68
#          DEC=61:32:43.26
#      RA(hrs)=23.590500
#     DEC(deg)=61.545400
#    AZIM(deg)=323.157
#    ELEV(deg)=51.114
#     IFattens=10.00, 9.00
#      WARNING=None
#    TCAL_XL1=7.9635
#    TCAL_YR1=9.1340
#    TCAL_XL2=7.9635
#    TCAL_YR2=9.1340
#     TRX_XL1=11.7060
#     TRX_YR1=11.7060
#     TRX_XL2=11.7060
#     TRX_YR2=11.7060
#        TAVE=1.0000
#Freq1(MHz)          XL1          YR1  Freq2(MHz)          XL2          YR2 

   1427.81250     379.9252     281.4040   1427.81250     379.9252     281.4040
   1427.79724     381.7677     281.6129   1427.79724     381.7677     281.6129
   1427.78198     381.8610     282.8109   1427.78198     381.8610     282.8109
   1427.76672     382.6439     283.4576   1427.76672     382.6439     283.4576
   1427.75146     383.7379     284.0796   1427.75146     383.7379     284.0796
   1427.73621     384.7883     284.8749   1427.73621     384.7883     284.8749
   1427.72095     385.5291     285.7395   1427.72095     385.5291     285.7395
   1427.70569     386.6354     286.7544   1427.70569     386.6354     286.7544
   1427.69043     387.4091     287.8983   1427.69043     387.4091     287.8983
   1427.67517     388.6750     288.8107   1427.67517     388.6750     288.8107
   1427.65991     389.7547     289.7219   1427.65991     389.7547     289.7219
   1427.64465     391.0630     290.5600   1427.64465     391.0630     290.5600
   1427.62939     392.8343     292.0067   1427.62939     392.8343     292.0067
   1427.61414     393.0917     293.3470   1427.61414     393.0917     293.3470
   1427.59888     394.6557     294.6289   1427.59888     394.6557     294.6289
   1427.58362     396.0987     296.1377   1427.58362     396.0987     296.1377
   1427.56836     398.0431     296.8439   1427.56836     398.0431     296.8439
   1427.55310     399.4173     298.2405   1427.55310     399.4173     298.2405
   1427.53784     401.2521     299.1351   1427.53784     401.2521     299.1351
   1427.52258     403.0318     300.9221   1427.52258     403.0318     300.9221
   1427.50732     404.5930     302.8495   1427.50732     404.5930     302.8495
   1427.49207     405.9843     303.5545   1427.49207     405.9843     303.5545
   1427.47681     408.0010     305.2625   1427.47681     408.0010     305.2625
   1427.46155     410.6777     307.0712   1427.46155     410.6777     307.0712
   1427.44629     411.9395     309.0430   1427.44629     411.9395     309.0430
   1427.43103     413.0587     310.1693   1427.43103     413.0587     310.1693
   1427.41577     414.9514     312.3548   1427.41577     414.9514     312.3548
   1427.40051     417.5595     313.3111   1427.40051     417.5595     313.3111
   1427.38525     419.3670     315.4645   1427.38525     419.3670     315.4645
   1427.37000     421.8411     316.8365   1427.37000     421.8411     316.8365
   1427.35474     423.6519     318.4439   1427.35474     423.6519     318.4439
   1427.33948     426.3679     320.6302   1427.33948     426.3679     320.6302
   1427.32422     428.2376     322.6465   1427.32422     428.2376     322.6465
   1427.30896     430.5630     324.0237   1427.30896     430.5630     324.0237
   1427.29370     433.2041     325.3920   1427.29370     433.2041     325.3920
   1427.27844     434.6270     328.5153   1427.27844     434.6270     328.5153
   1427.26318     437.1895     330.4899   1427.26318     437.1895     330.4899
   1427.24792     439.4664     332.1465   1427.24792     439.4664     332.1465
   1427.23267     442.8190     334.3247   1427.23267     442.8190     334.3247
   1427.21741     445.7484     336.2123   1427.21741     445.7484     336.2123
   1427.20215     446.9930     338.4737   1427.20215     446.9930     338.4737
   1427.18689     449.7351     339.7837   1427.18689     449.7351     339.7837
   1427.17163     452.6739     342.1772   1427.17163     452.6739     342.1772
   1427.15637     455.5259     344.7255   1427.15637     455.5259     344.7255
   1427.14111     457.8510     346.4623   1427.14111     457.8510     346.4623
   1427.12585     459.9556     349.3481   1427.12585     459.9556     349.3481
   1427.11060     464.0510     351.1354   1427.11060     464.0510     351.1354
   1427.09534     466.4699     352.7683   1427.09534     466.4699     352.7683
   1427.08008     468.5526     355.4880   1427.08008     468.5526     355.4880
   1427.06482     471.6024     358.2692   1427.06482     471.6024     358.2692
   1427.04956     473.4382     360.1528   1427.04956     473.4382     360.1528
   1427.03430     477.0659     362.0270   1427.03430     477.0659     362.0270
   1427.01904     479.8270     364.5839   1427.01904     479.8270     364.5839
   1427.00378     482.0084     366.9894   1427.00378     482.0084     366.9894
   1426.98853     485.2305     369.7703   1426.98853     485.2305     369.7703
   1426.97327     488.0973     371.4599   1426.97327     488.0973     371.4599
   1426.95801     490.6333     374.0915   1426.95801     490.6333     374.0915
   1426.94275     495.1617     376.5740   1426.94275     495.1617     376.5740
   1426.92749     496.4123     378.7888   1426.92749     496.4123     378.7888
   1426.91223     500.1425     381.6570   1426.91223     500.1425     381.6570
   1426.89697     502.8718     384.4748   1426.89697     502.8718     384.4748
   1426.88171     506.1510     386.2192   1426.88171     506.1510     386.2192
   1426.86646     509.8795     389.8631   1426.86646     509.8795     389.8631
   1426.85120     512.4890     391.2117   1426.85120     512.4890     391.2117
   1426.83594     515.3696     394.1063   1426.83594     515.3696     394.1063
   1426.82068     517.7180     396.1258   1426.82068     517.7180     396.1258
   1426.80542     520.3951     398.4341   1426.80542     520.3951     398.4341
   1426.79016     523.9091     401.8024   1426.79016     523.9091     401.8024
   1426.77490     527.2482     403.9612   1426.77490     527.2482     403.9612
   1426.75964     530.5282     406.9251   1426.75964     530.5282     406.9251
   1426.74438     533.6193     409.2765   1426.74438     533.6193     409.2765
   1426.72913     536.4699     411.7344   1426.72913     536.4699     411.7344
   1426.71387     539.3871     414.2613   1426.71387     539.3871     414.2613
   1426.69861     541.8114     415.9372   1426.69861     541.8114     415.9372
   1426.68335     545.9448     419.3987   1426.68335     545.9448     419.3987
   1426.66809     548.5289     421.3138   1426.66809     548.5289     421.3138
   1426.65283     551.6928     423.9037   1426.65283     551.6928     423.9037
   1426.63757     555.5049     425.9095   1426.63757     555.5049     425.9095
   1426.62231     560.1055     429.5095   1426.62231     560.1055     429.5095
   1426.60706     561.7891     431.4165   1426.60706     561.7891     431.4165
   1426.59180     563.8808     434.0074   1426.59180     563.8808     434.0074
   1426.57654     566.7967     436.7124   1426.57654     566.7967     436.7124
   1426.56128     570.3057     438.2448   1426.56128     570.3057     438.2448
   1426.54602     573.6490     441.0407   1426.54602     573.6490     441.0407
   1426.53076     576.4744     443.5181   1426.53076     576.4744     443.5181
   1426.51550     578.9924     446.9501   1426.51550     578.9924     446.9501
   1426.50024     581.5462     449.0781   1426.50024     581.5462     449.0781
   1426.48499     584.9870     451.4590   1426.48499     584.9870     451.4590
   1426.46973     588.0522     453.8602   1426.46973     588.0522     453.8602
   1426.45447     591.2122     456.2472   1426.45447     591.2122     456.2472
   1426.43921     594.1783     458.8643   1426.43921     594.1783     458.8643
   1426.42395     597.2034     461.0607   1426.42395     597.2034     461.0607
   1426.40869     600.1309     464.5031   1426.40869     600.1309     464.5031
   1426.39343     601.9380     466.2737   1426.39343     601.9380     466.2737
   1426.37817     605.2735     468.5979   1426.37817     605.2735     468.5979
   1426.36292     608.6979     470.9428   1426.36292     608.6979     470.9428
   1426.34766     611.9868     474.0342   1426.34766     611.9868     474.0342
   1426.33240     614.9736     476.4401   1426.33240     614.9736     476.4401
   1426.31714     616.8545     478.6949   1426.31714     616.8545     478.6949
   1426.30188     620.2838     481.0526   1426.30188     620.2838     481.0526
   1426.28662     622.6715     483.2479   1426.28662     622.6715     483.2479
   1426.27136     624.5107     486.3746   1426.27136     624.5107     486.3746
   1426.25610     628.7471     488.8820   1426.25610     628.7471     488.8820
   1426.24084     631.4183     489.8341   1426.24084     631.4183     489.8341
   1426.22559     634.1252     492.5406   1426.22559     634.1252     492.5406
   1426.21033     636.0545     495.3861   1426.21033     636.0545     495.3861
   1426.19507     639.6520     497.0869   1426.19507     639.6520     497.0869
   1426.17981     642.1430     499.0472   1426.17981     642.1430     499.0472
   1426.16455     644.5170     502.5367   1426.16455     644.5170     502.5367
   1426.14929     647.1037     504.9990   1426.14929     647.1037     504.9990
   1426.13403     649.0939     506.5846   1426.13403     649.0939     506.5846
   1426.11877     651.8763     509.3661   1426.11877     651.8763     509.3661
   1426.10352     655.1777     511.3085   1426.10352     655.1777     511.3085
   1426.08826     657.5866     513.4739   1426.08826     657.5866     513.4739
   1426.07300     660.5787     515.4293   1426.07300     660.5787     515.4293
   1426.05774     662.4629     518.4268   1426.05774     662.4629     518.4268
   1426.04248     664.6125     521.5743   1426.04248     664.6125     521.5743
   1426.02722     666.3714     522.0356   1426.02722     666.3714     522.0356
   1426.01196     669.9477     524.3919   1426.01196     669.9477     524.3919
   1425.99670     672.2106     526.6733   1425.99670     672.2106     526.6733
   1425.98145     674.5651     528.4927   1425.98145     674.5651     528.4927
   1425.96619     676.3708     530.2341   1425.96619     676.3708     530.2341
   1425.95093     678.8021     533.3652   1425.95093     678.8021     533.3652
   1425.93567     680.4281     534.8768   1425.93567     680.4281     534.8768
   1425.92041     683.9180     537.1357   1425.92041     683.9180     537.1357
   1425.90515     685.2221     539.8668   1425.90515     685.2221     539.8668
   1425.88989     687.2910     541.2712   1425.88989     687.2910     541.2712
   1425.87463     689.8268     543.6768   1425.87463     689.8268     543.6768
   1425.85938     691.6912     545.5960   1425.85938     691.6912     545.5960
   1425.84412     692.7689     548.1388   1425.84412     692.7689     548.1388
   1425.82886     696.3397     549.3034   1425.82886     696.3397     549.3034
   1425.81360     698.6624     551.5239   1425.81360     698.6624     551.5239
   1425.79834     700.6213     553.6294   1425.79834     700.6213     553.6294
   1425.78308     702.8996     556.0333   1425.78308     702.8996     556.0333
   1425.76782     703.8884     557.0297   1425.76782     703.8884     557.0297
   1425.75256     706.3641     558.3370   1425.75256     706.3641     558.3370
   1425.73730     707.1760     560.4116   1425.73730     707.1760     560.4116
   1425.72205     708.8453     563.2838   1425.72205     708.8453     563.2838
   1425.70679     710.6324     564.6712   1425.70679     710.6324     564.6712
   1425.69153     712.1290     566.1239   1425.69153     712.1290     566.1239
   1425.67627     713.5304     567.6978   1425.67627     713.5304     567.6978
   1425.66101     716.5163     569.9280   1425.66101     716.5163     569.9280
   1425.64575     717.5986     572.1293   1425.64575     717.5986     572.1293
   1425.63049     718.9302     573.3340   1425.63049     718.9302     573.3340
   1425.61523     720.8437     575.9958   1425.61523     720.8437     575.9958
   1425.59998     721.7668     577.6796   1425.59998     721.7668     577.6796
   1425.58472     723.4969     578.3145   1425.58472     723.4969     578.3145
   1425.56946     724.4484     580.6541   1425.56946     724.4484     580.6541
   1425.55420     726.5917     582.7880   1425.55420     726.5917     582.7880
   1425.53894     727.2609     584.8327   1425.53894     727.2609     584.8327
   1425.52368     729.6046     585.4293   1425.52368     729.6046     585.4293
   1425.50842     731.6341     586.7112   1425.50842     731.6341     586.7112
   1425.49316     731.8364     587.9169   1425.49316     731.8364     587.9169
   1425.47791     733.6908     590.5215   1425.47791     733.6908     590.5215
   1425.46265     735.0997     592.4382   1425.46265     735.0997     592.4382
   1425.44739     736.2478     594.2463   1425.44739     736.2478     594.2463
   1425.43213     735.9507     594.5132   1425.43213     735.9507     594.5132
   1425.41687     738.3351     597.0715   1425.41687     738.3351     597.0715
   1425.40161     739.3145     598.4806   1425.40161     739.3145     598.4806
   1425.38635     740.7814     599.5774   1425.38635     740.7814     599.5774
   1425.37109     739.7477     601.2416   1425.37109     739.7477     601.2416
   1425.35583     742.1016     603.0162   1425.35583     742.1016     603.0162
   1425.34058     743.2969     604.3889   1425.34058     743.2969     604.3889
   1425.32532     744.3054     606.8595   1425.32532     744.3054     606.8595
   1425.31006     745.6400     607.4935   1425.31006     745.6400     607.4935
   1425.29480     746.8265     607.2243   1425.29480     746.8265     607.2243
   1425.27954     747.2720     609.9725   1425.27954     747.2720     609.9725
   1425.26428     748.7031     610.9559   1425.26428     748.7031     610.9559
   1425.24902     748.7734     612.3181   1425.24902     748.7734     612.3181
   1425.23376     750.8687     614.5274   1425.23376     750.8687     614.5274
   1425.21851     751.0504     615.8582   1425.21851     751.0504     615.8582
   1425.20325     752.2164     617.3855   1425.20325     752.2164     617.3855
   1425.18799     752.9042     618.5798   1425.18799     752.9042     618.5798
   1425.17273     753.0405     619.1722   1425.17273     753.0405     619.1722
   1425.15747     754.1539     620.8455   1425.15747     754.1539     620.8455
   1425.14221     754.5939     621.6246   1425.14221     754.5939     621.6246
   1425.12695     755.3992     621.8919   1425.12695     755.3992     621.8919
   1425.11169     757.2438     624.5379   1425.11169     757.2438     624.5379
   1425.09644     756.1957     625.6668   1425.09644     756.1957     625.6668
   1425.08118     757.3565     627.4983   1425.08118     757.3565     627.4983
   1425.06592     757.9991     628.4309   1425.06592     757.9991     628.4309
   1425.05066     758.4837     629.2870   1425.05066     758.4837     629.2870
   1425.03540     758.7251     630.9493   1425.03540     758.7251     630.9493
   1425.02014     759.2409     631.5644   1425.02014     759.2409     631.5644
   1425.00488     758.9966     632.6538   1425.00488     758.9966     632.6538
   1424.98962     759.7499     634.2029   1424.98962     759.7499     634.2029
   1424.97437     760.9589     635.1472   1424.97437     760.9589     635.1472
   1424.95911     761.3759     636.4788   1424.95911     761.3759     636.4788
   1424.94385     762.0502     637.1731   1424.94385     762.0502     637.1731
   1424.92859     763.2488     638.0133   1424.92859     763.2488     638.0133
   1424.91333     762.6990     638.5427   1424.91333     762.6990     638.5427
   1424.89807     762.3839     640.3317   1424.89807     762.3839     640.3317
   1424.88281     763.1566     640.6342   1424.88281     763.1566     640.6342
   1424.86755     764.0636     642.4955   1424.86755     764.0636     642.4955
   1424.85229     763.1995     643.3323   1424.85229     763.1995     643.3323
   1424.83704     763.1918     644.1025   1424.83704     763.1918     644.1025
   1424.82178     764.0450     644.8942   1424.82178     764.0450     644.8942
   1424.80652     763.3822     645.6015   1424.80652     763.3822     645.6015
   1424.79126     765.0148     646.9794   1424.79126     765.0148     646.9794
   1424.77600     763.5652     648.0428   1424.77600     763.5652     648.0428
   1424.76074     765.4222     649.1791   1424.76074     765.4222     649.1791
   1424.74548     764.5839     648.7278   1424.74548     764.5839     648.7278
   1424.73022     765.1472     650.3087   1424.73022     765.1472     650.3087
   1424.71497     766.0136     651.6721   1424.71497     766.0136     651.6721
   1424.69971     764.1341     652.0312   1424.69971     764.1341     652.0312
   1424.68445     765.9562     653.3810   1424.68445     765.9562     653.3810
   1424.66919     765.4662     653.0357   1424.66919     765.4662     653.0357
   1424.65393     764.8805     654.1081   1424.65393     764.8805     654.1081
   1424.63867     764.3010     655.3897   1424.63867     764.3010     655.3897
   1424.62341     764.7461     656.3140   1424.62341     764.7461     656.3140
   1424.60815     765.1281     655.7637   1424.60815     765.1281     655.7637
   1424.59290     765.1846     658.4482   1424.59290     765.1846     658.4482
   1424.57764     764.8331     659.3172   1424.57764     764.8331     659.3172
   1424.56238     766.2380     658.9703   1424.56238     766.2380     658.9703
   1424.54712     765.1811     659.4355   1424.54712     765.1811     659.4355
   1424.53186     765.2101     660.6686   1424.53186     765.2101     660.6686
   1424.51660     764.9052     660.9175   1424.51660     764.9052     660.9175
   1424.50134     765.2015     662.8398   1424.50134     765.2015     662.8398
   1424.48608     765.3285     662.6560   1424.48608     765.3285     662.6560
   1424.47083     766.5985     663.6658   1424.47083     766.5985     663.6658
   1424.45557     765.9484     663.6969   1424.45557     765.9484     663.6969
   1424.44031     765.3363     665.0911   1424.44031     765.3363     665.0911
   1424.42505     764.2656     665.4634   1424.42505     764.2656     665.4634
   1424.40979     765.2227     666.0265   1424.40979     765.2227     666.0265
   1424.39453     765.6542     666.5274   1424.39453     765.6542     666.5274
   1424.37927     763.8708     666.5608   1424.37927     763.8708     666.5608
   1424.36401     764.2658     667.8124   1424.36401     764.2658     667.8124
   1424.34875     764.1038     667.2249   1424.34875     764.1038     667.2249
   1424.33350     763.4786     668.6389   1424.33350     763.4786     668.6389
   1424.31824     764.4461     668.7441   1424.31824     764.4461     668.7441
   1424.30298     763.9895     669.9738   1424.30298     763.9895     669.9738
   1424.28772     764.0857     671.2782   1424.28772     764.0857     671.2782
   1424.27246     763.5286     670.2491   1424.27246     763.5286     670.2491
   1424.25720     762.5547     670.4843   1424.25720     762.5547     670.4843
   1424.24194     761.6865     672.0071   1424.24194     761.6865     672.0071
   1424.22668     762.5501     671.9266   1424.22668     762.5501     671.9266
   1424.21143     762.4152     672.7148   1424.21143     762.4152     672.7148
   1424.19617     762.4384     673.4616   1424.19617     762.4384     673.4616
   1424.18091     761.7336     674.7109   1424.18091     761.7336     674.7109
   1424.16565     762.4916     674.1384   1424.16565     762.4916     674.1384
   1424.15039     760.5015     674.8605   1424.15039     760.5015     674.8605
   1424.13513     760.1110     674.2578   1424.13513     760.1110     674.2578
   1424.11987     759.7447     675.2753   1424.11987     759.7447     675.2753
   1424.10461     760.5179     675.0358   1424.10461     760.5179     675.0358
   1424.08936     760.6296     675.3070   1424.08936     760.6296     675.3070
   1424.07410     760.1299     675.8630   1424.07410     760.1299     675.8630
   1424.05884     759.7650     676.2770   1424.05884     759.7650     676.2770
   1424.04358     759.0848     677.6601   1424.04358     759.0848     677.6601
   1424.02832     758.9737     677.3968   1424.02832     758.9737     677.3968
   1424.01306     758.4528     677.4598   1424.01306     758.4528     677.4598
   1423.99780     758.0637     676.8973   1423.99780     758.0637     676.8973
   1423.98254     757.9423     679.1057   1423.98254     757.9423     679.1057
   1423.96729     756.8802     678.3138   1423.96729     756.8802     678.3138
   1423.95203     756.7195     679.6644   1423.95203     756.7195     679.6644
   1423.93677     757.2592     678.1043   1423.93677     757.2592     678.1043
   1423.92151     757.2603     678.6746   1423.92151     757.2603     678.6746
   1423.90625     757.1135     678.7318   1423.90625     757.1135     678.7318
   1423.89099     756.5150     679.5544   1423.89099     756.5150     679.5544
   1423.87573     756.1239     679.8099   1423.87573     756.1239     679.8099
   1423.86047     756.2983     681.3967   1423.86047     756.2983     681.3967
   1423.84521     755.8788     680.1305   1423.84521     755.8788     680.1305
   1423.82996     755.3002     680.0668   1423.82996     755.3002     680.0668
   1423.81470     754.7292     680.5929   1423.81470     754.7292     680.5929
   1423.79944     754.4879     680.4214   1423.79944     754.4879     680.4214
   1423.78418     753.8799     680.5587   1423.78418     753.8799     680.5587
   1423.76892     753.0971     679.2242   1423.76892     753.0971     679.2242
   1423.75366     753.9242     680.6644   1423.75366     753.9242     680.6644
   1423.73840     753.4967     679.6009   1423.73840     753.4967     679.6009
   1423.72314     752.9260     680.5469   1423.72314     752.9260     680.5469
   1423.70789     752.4221     679.4446   1423.70789     752.4221     679.4446
   1423.69263     752.8022     680.8348   1423.69263     752.8022     680.8348
   1423.67737     752.5417     681.4373   1423.67737     752.5417     681.4373
   1423.66211     752.1084     680.4022   1423.66211     752.1084     680.4022
   1423.64685     750.7188     679.9388   1423.64685     750.7188     679.9388
   1423.63159     751.2451     680.1594   1423.63159     751.2451     680.1594
   1423.61633     751.4731     679.6581   1423.61633     751.4731     679.6581
   1423.60107     749.3688     680.5892   1423.60107     749.3688     680.5892
   1423.58582     748.9318     681.2894   1423.58582     748.9318     681.2894
   1423.57056     749.9068     679.9958   1423.57056     749.9068     679.9958
   1423.55530     749.9829     679.2642   1423.55530     749.9829     679.2642
   1423.54004     748.7003     679.5640   1423.54004     748.7003     679.5640
   1423.52478     749.1490     679.2235   1423.52478     749.1490     679.2235
   1423.50952     748.8412     678.3735   1423.50952     748.8412     678.3735
   1423.49426     749.8281     680.0985   1423.49426     749.8281     680.0985
   1423.47900     746.9314     678.7385   1423.47900     746.9314     678.7385
   1423.46375     746.1827     679.8818   1423.46375     746.1827     679.8818
   1423.44849     747.1104     678.6439   1423.44849     747.1104     678.6439
   1423.43323     746.4822     678.6122   1423.43323     746.4822     678.6122
   1423.41797     746.9463     678.8324   1423.41797     746.9463     678.8324
   1423.40271     746.4821     677.0547   1423.40271     746.4821     677.0547
   1423.38745     745.1276     677.4197   1423.38745     745.1276     677.4197
   1423.37219     745.0558     677.9413   1423.37219     745.0558     677.9413
   1423.35693     745.2870     677.9534   1423.35693     745.2870     677.9534
   1423.34167     745.4147     677.5791   1423.34167     745.4147     677.5791
   1423.32642     744.4691     675.6461   1423.32642     744.4691     675.6461
   1423.31116     743.5106     675.4918   1423.31116     743.5106     675.4918
   1423.29590     744.0456     675.3116   1423.29590     744.0456     675.3116
   1423.28064     743.5625     674.5851   1423.28064     743.5625     674.5851
   1423.26538     743.8007     674.1495   1423.26538     743.8007     674.1495
   1423.25012     742.4999     673.3928   1423.25012     742.4999     673.3928
   1423.23486     741.8793     673.3940   1423.23486     741.8793     673.3940
   1423.21960     742.7193     673.1113   1423.21960     742.7193     673.1113
   1423.20435     741.2751     672.1712   1423.20435     741.2751     672.1712
   1423.18909     741.6851     672.5945   1423.18909     741.6851     672.5945
   1423.17383     741.8416     671.5087   1423.17383     741.8416     671.5087
   1423.15857     740.7677     671.1688   1423.15857     740.7677     671.1688
   1423.14331     741.1595     671.3309   1423.14331     741.1595     671.3309
   1423.12805     741.4174     669.5302   1423.12805     741.4174     669.5302
   1423.11279     739.7893     670.2321   1423.11279     739.7893     670.2321
   1423.09753     740.8120     668.6475   1423.09753     740.8120     668.6475
   1423.08228     739.7638     668.2371   1423.08228     739.7638     668.2371
   1423.06702     739.8668     667.6370   1423.06702     739.8668     667.6370
   1423.05176     738.3620     667.0019   1423.05176     738.3620     667.0019
   1423.03650     740.1216     665.6634   1423.03650     740.1216     665.6634
   1423.02124     738.9391     664.6966   1423.02124     738.9391     664.6966
   1423.00598     738.2226     664.2054   1423.00598     738.2226     664.2054
   1422.99072     738.1751     664.0134   1422.99072     738.1751     664.0134
   1422.97546     737.7784     663.7324   1422.97546     737.7784     663.7324
   1422.96021     738.3053     661.9472   1422.96021     738.3053     661.9472
   1422.94495     737.6645     661.1158   1422.94495     737.6645     661.1158
   1422.92969     737.4795     661.6948   1422.92969     737.4795     661.6948
   1422.91443     736.9137     660.7326   1422.91443     736.9137     660.7326
   1422.89917     736.9426     659.4443   1422.89917     736.9426     659.4443
   1422.88391     736.2169     657.4971   1422.88391     736.2169     657.4971
   1422.86865     736.8580     658.0129   1422.86865     736.8580     658.0129
   1422.85339     736.5948     657.4525   1422.85339     736.5948     657.4525
   1422.83813     736.2275     655.9333   1422.83813     736.2275     655.9333
   1422.82288     734.8994     656.3402   1422.82288     734.8994     656.3402
   1422.80762     735.0282     654.1608   1422.80762     735.0282     654.1608
   1422.79236     734.6332     653.3655   1422.79236     734.6332     653.3655
   1422.77710     733.7899     652.4577   1422.77710     733.7899     652.4577
   1422.76184     736.1598     651.9550   1422.76184     736.1598     651.9550
   1422.74658     734.4634     649.0269   1422.74658     734.4634     649.0269
   1422.73132     733.2692     648.5161   1422.73132     733.2692     648.5161
   1422.71606     734.2969     649.2544   1422.71606     734.2969     649.2544
   1422.70081     734.0218     648.1312   1422.70081     734.0218     648.1312
   1422.68555     733.0639     647.8016   1422.68555     733.0639     647.8016
   1422.67029     733.2722     645.6774   1422.67029     733.2722     645.6774
   1422.65503     732.3524     643.8916   1422.65503     732.3524     643.8916
   1422.63977     731.9562     642.8362   1422.63977     731.9562     642.8362
   1422.62451     733.2490     642.6068   1422.62451     733.2490     642.6068
   1422.60925     732.8210     641.8632   1422.60925     732.8210     641.8632
   1422.59399     733.4105     640.7842   1422.59399     733.4105     640.7842
   1422.57874     732.6877     639.4277   1422.57874     732.6877     639.4277
   1422.56348     730.5444     638.2421   1422.56348     730.5444     638.2421
   1422.54822     732.1049     637.1125   1422.54822     732.1049     637.1125
   1422.53296     731.3958     635.5489   1422.53296     731.3958     635.5489
   1422.51770     731.7270     635.2579   1422.51770     731.7270     635.2579
   1422.50244     731.1486     633.6981   1422.50244     731.1486     633.6981
   1422.48718     730.2862     632.2355   1422.48718     730.2862     632.2355
   1422.47192     729.4865     629.8306   1422.47192     729.4865     629.8306
   1422.45667     729.0722     629.2011   1422.45667     729.0722     629.2011
   1422.44141     730.0936     628.8923   1422.44141     730.0936     628.8923
   1422.42615     729.6732     627.5718   1422.42615     729.6732     627.5718
   1422.41089     729.8000     626.3939   1422.41089     729.8000     626.3939
   1422.39563     729.2940     624.7393   1422.39563     729.2940     624.7393
   1422.38037     729.6348     623.7341   1422.38037     729.6348     623.7341
   1422.36511     729.2115     621.9582   1422.36511     729.2115     621.9582
   1422.34985     730.3933     621.8833   1422.34985     730.3933     621.8833
   1422.33459     728.5026     618.9969   1422.33459     728.5026     618.9969
   1422.31934     729.0109     617.6453   1422.31934     729.0109     617.6453
   1422.30408     728.4764     616.2458   1422.30408     728.4764     616.2458
   1422.28882     727.9455     616.1294   1422.28882     727.9455     616.1294
   1422.27356     727.3509     614.2767   1422.27356     727.3509     614.2767
   1422.25830     728.2724     613.9996   1422.25830     728.2724     613.9996
   1422.24304     727.0478     612.6534   1422.24304     727.0478     612.6534
   1422.22778     728.2446     611.4575   1422.22778     728.2446     611.4575
   1422.21252     726.5314     609.1990   1422.21252     726.5314     609.1990
   1422.19727     726.9211     608.4446   1422.19727     726.9211     608.4446
   1422.18201     727.5818     606.8342   1422.18201     727.5818     606.8342
   1422.16675     727.5908     605.6537   1422.16675     727.5908     605.6537
   1422.15149     726.0693     602.9962   1422.15149     726.0693     602.9962
   1422.13623     725.8553     602.9755   1422.13623     725.8553     602.9755
   1422.12097     725.9380     601.5542   1422.12097     725.9380     601.5542
   1422.10571     725.6475     600.4280   1422.10571     725.6475     600.4280
   1422.09045     725.9018     598.6465   1422.09045     725.9018     598.6465
   1422.07520     725.5920     597.3058   1422.07520     725.5920     597.3058
   1422.05994     724.0592     596.7683   1422.05994     724.0592     596.7683
   1422.04468     724.8749     594.6832   1422.04468     724.8749     594.6832
   1422.02942     725.1452     592.4756   1422.02942     725.1452     592.4756
   1422.01416     724.1334     592.0394   1422.01416     724.1334     592.0394
   1421.99890     724.5808     589.5400   1421.99890     724.5808     589.5400
   1421.98364     723.8290     588.7982   1421.98364     723.8290     588.7982
   1421.96838     723.4299     586.9052   1421.96838     723.4299     586.9052
   1421.95312     724.2929     585.2238   1421.95312     724.2929     585.2238
   1421.93787     724.7133     584.9771   1421.93787     724.7133     584.9771
   1421.92261     724.6845     582.9948   1421.92261     724.6845     582.9948
   1421.90735     722.9634     581.4902   1421.90735     722.9634     581.4902
   1421.89209     722.6077     580.1104   1421.89209     722.6077     580.1104
   1421.87683     723.0162     578.1375   1421.87683     723.0162     578.1375
   1421.86157     723.2448     577.1521   1421.86157     723.2448     577.1521
   1421.84631     722.3560     575.9544   1421.84631     722.3560     575.9544
   1421.83105     722.1129     573.7927   1421.83105     722.1129     573.7927
   1421.81580     723.3823     572.6922   1421.81580     723.3823     572.6922
   1421.80054     721.6562     572.1801   1421.80054     721.6562     572.1801
   1421.78528     722.2471     569.9073   1421.78528     722.2471     569.9073
   1421.77002     721.5515     568.7393   1421.77002     721.5515     568.7393
   1421.75476     721.2531     566.9429   1421.75476     721.2531     566.9429
   1421.73950     720.4122     565.7194   1421.73950     720.4122     565.7194
   1421.72424     720.7702     564.4308   1421.72424     720.7702     564.4308
   1421.70898     720.0948     562.2905   1421.70898     720.0948     562.2905
   1421.69373     721.3915     560.3424   1421.69373     721.3915     560.3424
   1421.67847     720.4102     559.3444   1421.67847     720.4102     559.3444
   1421.66321     719.9823     557.9006   1421.66321     719.9823     557.9006
   1421.64795     720.6784     557.2061   1421.64795     720.6784     557.2061
   1421.63269     720.1575     555.2542   1421.63269     720.1575     555.2542
   1421.61743     718.9928     553.4843   1421.61743     718.9928     553.4843
   1421.60217     718.4401     551.9666   1421.60217     718.4401     551.9666
   1421.58691     718.8565     550.9531   1421.58691     718.8565     550.9531
   1421.57166     719.1778     548.9874   1421.57166     719.1778     548.9874
   1421.55640     718.9891     547.6531   1421.55640     718.9891     547.6531
   1421.54114     718.8710     546.7380   1421.54114     718.8710     546.7380
   1421.52588     719.1545     545.0022   1421.52588     719.1545     545.0022
   1421.51062     717.4626     543.9251   1421.51062     717.4626     543.9251
   1421.49536     717.0228     542.1346   1421.49536     717.0228     542.1346
   1421.48010     718.3753     540.6451   1421.48010     718.3753     540.6451
   1421.46484     718.6290     539.4580   1421.46484     718.6290     539.4580
   1421.44958     717.2159     538.0171   1421.44958     717.2159     538.0171
   1421.43433     717.9630     536.9550   1421.43433     717.9630     536.9550
   1421.41907     717.7574     534.9302   1421.41907     717.7574     534.9302
   1421.40381     717.1898     534.7376   1421.40381     717.1898     534.7376
   1421.38855     717.5632     532.2432   1421.38855     717.5632     532.2432
   1421.37329     718.0492     531.6746   1421.37329     718.0492     531.6746
   1421.35803     717.2397     529.8613   1421.35803     717.2397     529.8613
   1421.34277     717.4301     528.9080   1421.34277     717.4301     528.9080
   1421.32751     719.3349     529.7440   1421.32751     719.3349     529.7440
   1421.31226     718.8375     527.4797   1421.31226     718.8375     527.4797
   1421.29700     721.1738     526.0141   1421.29700     721.1738     526.0141
   1421.28174     722.0726     526.3656   1421.28174     722.0726     526.3656
   1421.26648     722.4902     526.6373   1421.26648     722.4902     526.6373
   1421.25122     725.1940     526.2753   1421.25122     725.1940     526.2753
   1421.23596     727.0638     526.7910   1421.23596     727.0638     526.7910
   1421.22070     726.9547     525.5292   1421.22070     726.9547     525.5292
   1421.20544     727.5486     523.6481   1421.20544     727.5486     523.6481
   1421.19019     725.0685     521.7504   1421.19019     725.0685     521.7504
   1421.17493     723.7003     519.2770   1421.17493     723.7003     519.2770
   1421.15967     722.0321     517.5667   1421.15967     722.0321     517.5667
   1421.14441     722.8085     515.9698   1421.14441     722.8085     515.9698
   1421.12915     724.3222     515.6110   1421.12915     724.3222     515.6110
   1421.11389     727.4807     517.5580   1421.11389     727.4807     517.5580
   1421.09863     734.6266     521.5771   1421.09863     734.6266     521.5771
   1421.08337     754.1367     533.7128   1421.08337     754.1367     533.7128
   1421.06812     798.3740     562.6797   1421.06812     798.3740     562.6797
   1421.05286     848.3750     595.7255   1421.05286     848.3750     595.7255
   1421.03760     847.8229     593.7956   1421.03760     847.8229     593.7956
   1421.02234     855.8084     599.0938   1421.02234     855.8084     599.0938
   1421.00708     867.9907     603.7244   1421.00708     867.9907     603.7244
   1420.99182     878.6287     609.8667   1420.99182     878.6287     609.8667
   1420.97656     912.6367     632.5217   1420.97656     912.6367     632.5217
   1420.96130     948.6984     654.6284   1420.96130     948.6984     654.6284
   1420.94604     983.9169     676.9123   1420.94604     983.9169     676.9123
   1420.93079     992.6469     681.6049   1420.93079     992.6469     681.6049
   1420.91553     936.5020     643.1034   1420.91553     936.5020     643.1034
   1420.90027     888.5262     608.8144   1420.90027     888.5262     608.8144
   1420.88501     883.1318     603.6097   1420.88501     883.1318     603.6097
   1420.86975     902.0235     616.0748   1420.86975     902.0235     616.0748
   1420.85449     902.2870     615.1999   1420.85449     902.2870     615.1999
   1420.83923     918.6912     625.2220   1420.83923     918.6912     625.2220
   1420.82397     974.5808     658.5311   1420.82397     974.5808     658.5311
   1420.80872    1075.3959     726.4280   1420.80872    1075.3959     726.4280
   1420.79346    1218.4496     819.2342   1420.79346    1218.4496     819.2342
   1420.77820    1344.3014     897.9021   1420.77820    1344.3014     897.9021
   1420.76294    1530.4824    1018.9757   1420.76294    1530.4824    1018.9757
   1420.74768    1832.0646    1211.4849   1420.74768    1832.0646    1211.4849
   1420.73242    2117.2432    1398.5201   1420.73242    2117.2432    1398.5201
   1420.71716    2174.1396    1428.4666   1420.71716    2174.1396    1428.4666
   1420.70190    1971.9219    1294.9255   1420.70190    1971.9219    1294.9255
   1420.68665    1730.4137    1137.0988   1420.68665    1730.4137    1137.0988
   1420.67139    1576.9674    1037.4626   1420.67139    1576.9674    1037.4626
   1420.65613    1424.6777     935.8195   1420.65613    1424.6777     935.8195
   1420.64087    1194.8469     784.9171   1420.64087    1194.8469     784.9171
   1420.62561    1027.9825     676.2235   1420.62561    1027.9825     676.2235
   1420.61035     983.1789     647.2211   1420.61035     983.1789     647.2211
   1420.59509    1010.7979     662.4073   1420.59509    1010.7979     662.4073
   1420.57983    1184.8112     771.9429   1420.57983    1184.8112     771.9429
   1420.56458    1674.9075    1080.6909   1420.56458    1674.9075    1080.6909
   1420.54932    1892.2150    1218.7899   1420.54932    1892.2150    1218.7899
   1420.53406    1906.3824    1227.1171   1420.53406    1906.3824    1227.1171
   1420.51880    1677.0592    1079.1790   1420.51880    1677.0592    1079.1790
   1420.50354    1649.7657    1058.4932   1420.50354    1649.7657    1058.4932
   1420.48828    1731.3665    1110.6830   1420.48828    1731.3665    1110.6830
   1420.47302    1448.5533     928.9830   1420.47302    1448.5533     928.9830
   1420.45776    1150.7352     739.8139   1420.45776    1150.7352     739.8139
   1420.44250    1000.3916     641.8442   1420.44250    1000.3916     641.8442
   1420.42725     878.2650     564.0489   1420.42725     878.2650     564.0489
   1420.41199     787.7260     507.4937   1420.41199     787.7260     507.4937
   1420.39673     750.4088     483.2887   1420.39673     750.4088     483.2887
   1420.38147     733.3835     472.0614   1420.38147     733.3835     472.0614
   1420.36621     724.9412     466.0564   1420.36621     724.9412     466.0564
   1420.35095     719.4205     462.2549   1420.35095     719.4205     462.2549
   1420.33569     717.7771     459.4789   1420.33569     717.7771     459.4789
   1420.32043     715.6684     457.4280   1420.32043     715.6684     457.4280
   1420.30518     713.7712     456.1603   1420.30518     713.7712     456.1603
   1420.28992     712.4714     454.7754   1420.28992     712.4714     454.7754
   1420.27466     712.4275     454.1781   1420.27466     712.4275     454.1781
   1420.25940     712.1465     452.1618   1420.25940     712.1465     452.1618
   1420.24414     711.7170     452.4177   1420.24414     711.7170     452.4177
   1420.22888     711.8325     450.4680   1420.22888     711.8325     450.4680
   1420.21362     711.2523     449.4303   1420.21362     711.2523     449.4303
   1420.19836     710.2053     448.1280   1420.19836     710.2053     448.1280
   1420.18311     708.4274     447.0092   1420.18311     708.4274     447.0092
   1420.16785     707.6964     445.7172   1420.16785     707.6964     445.7172
   1420.15259     706.8941     445.4055   1420.15259     706.8941     445.4055
   1420.13733     706.9581     443.4730   1420.13733     706.9581     443.4730
   1420.12207     706.1476     443.0507   1420.12207     706.1476     443.0507
   1420.10681     705.2028     441.9564   1420.10681     705.2028     441.9564
   1420.09155     705.5202     440.8808   1420.09155     705.5202     440.8808
   1420.07629     704.4722     440.0005   1420.07629     704.4722     440.0005
   1420.06104     704.8444     439.5195   1420.06104     704.8444     439.5195
   1420.04578     703.2789     438.5688   1420.04578     703.2789     438.5688
   1420.03052     703.4832     438.0682   1420.03052     703.4832     438.0682
   1420.01526     704.2699     437.5970   1420.01526     704.2699     437.5970
   1420.00000     704.9482     438.0948   1420.00000     704.9482     438.0948
   1419.98474     705.6265     438.5923   1419.98474     705.6265     438.5923
   1419.96948     706.9506     436.6447   1419.96948     706.9506     436.6447
   1419.95422     703.2180     434.8639   1419.95422     703.2180     434.8639
   1419.93896     703.4681     434.2964   1419.93896     703.4681     434.2964
   1419.92371     702.6255     433.5517   1419.92371     702.6255     433.5517
   1419.90845     704.5767     433.0838   1419.90845     704.5767     433.0838
   1419.89319     703.9923     432.4556   1419.89319     703.9923     432.4556
   1419.87793     704.0240     432.1011   1419.87793     704.0240     432.1011
   1419.86267     703.0135     431.2896   1419.86267     703.0135     431.2896
   1419.84741     703.6475     430.9849   1419.84741     703.6475     430.9849
   1419.83215     703.7748     430.1142   1419.83215     703.7748     430.1142
   1419.81689     705.8027     430.3710   1419.81689     705.8027     430.3710
   1419.80164     703.8813     429.5134   1419.80164     703.8813     429.5134
   1419.78638     704.8805     429.1986   1419.78638     704.8805     429.1986
   1419.77112     705.5145     429.7613   1419.77112     705.5145     429.7613
   1419.75586     704.6132     429.3965   1419.75586     704.6132     429.3965
   1419.74060     705.6508     429.4461   1419.74060     705.6508     429.4461
   1419.72534     705.8298     428.8300   1419.72534     705.8298     428.8300
   1419.71008     705.9095     428.4577   1419.71008     705.9095     428.4577
   1419.69482     705.9590     428.0595   1419.69482     705.9590     428.0595
   1419.67957     706.6170     427.7360   1419.67957     706.6170     427.7360
   1419.66431     705.8857     427.1793   1419.66431     705.8857     427.1793
   1419.64905     706.7580     427.5643   1419.64905     706.7580     427.5643
   1419.63379     707.3821     426.7835   1419.63379     707.3821     426.7835
   1419.61853     706.6056     426.8656   1419.61853     706.6056     426.8656
   1419.60327     707.2587     426.6564   1419.60327     707.2587     426.6564
   1419.58801     707.4547     426.1158   1419.58801     707.4547     426.1158
   1419.57275     708.2729     426.2702   1419.57275     708.2729     426.2702
   1419.55750     707.9614     426.0277   1419.55750     707.9614     426.0277
   1419.54224     707.8875     425.2241   1419.54224     707.8875     425.2241
   1419.52698     708.5287     425.4789   1419.52698     708.5287     425.4789
   1419.51172     709.5367     426.0634   1419.51172     709.5367     426.0634
   1419.49646     709.6666     425.4812   1419.49646     709.6666     425.4812
   1419.48120     710.5489     424.8967   1419.48120     710.5489     424.8967
   1419.46594     709.4778     425.6640   1419.46594     709.4778     425.6640
   1419.45068     710.5458     425.4568   1419.45068     710.5458     425.4568
   1419.43542     710.4062     425.3451   1419.43542     710.4062     425.3451
   1419.42017     711.2113     425.4775   1419.42017     711.2113     425.4775
   1419.40491     711.6339     425.3921   1419.40491     711.6339     425.3921
   1419.38965     712.1407     425.7924   1419.38965     712.1407     425.7924
   1419.37439     713.2303     424.6141   1419.37439     713.2303     424.6141
   1419.35913     713.5074     425.4511   1419.35913     713.5074     425.4511
   1419.34387     713.3940     425.8157   1419.34387     713.3940     425.8157
   1419.32861     713.3251     425.9021   1419.32861     713.3251     425.9021
   1419.31335     713.0778     424.6267   1419.31335     713.0778     424.6267
   1419.29810     715.3040     425.8644   1419.29810     715.3040     425.8644
   1419.28284     713.9445     425.5260   1419.28284     713.9445     425.5260
   1419.26758     715.8465     426.3038   1419.26758     715.8465     426.3038
   1419.25232     715.3240     425.8244   1419.25232     715.3240     425.8244
   1419.23706     717.4811     426.3546   1419.23706     717.4811     426.3546
   1419.22180     716.8704     426.3423   1419.22180     716.8704     426.3423
   1419.20654     716.9139     426.1635   1419.20654     716.9139     426.1635
   1419.19128     718.0914     425.7272   1419.19128     718.0914     425.7272
   1419.17603     718.0986     426.5694   1419.17603     718.0986     426.5694
   1419.16077     718.3997     426.8351   1419.16077     718.3997     426.8351
   1419.14551     719.4038     427.3315   1419.14551     719.4038     427.3315
   1419.13025     719.5043     426.6530   1419.13025     719.5043     426.6530
   1419.11499     719.4305     427.1703   1419.11499     719.4305     427.1703
   1419.09973     720.6531     427.9082   1419.09973     720.6531     427.9082
   1419.08447     721.5179     427.5928   1419.08447     721.5179     427.5928
   1419.06921     722.0077     428.3292   1419.06921     722.0077     428.3292
   1419.05396     722.0776     428.6415   1419.05396     722.0776     428.6415
   1419.03870     722.5773     428.3513   1419.03870     722.5773     428.3513
   1419.02344     723.5151     429.0824   1419.02344     723.5151     429.0824
   1419.00818     724.2425     428.1191   1419.00818     724.2425     428.1191
   1418.99292     724.6157     429.9734   1418.99292     724.6157     429.9734
   1418.97766     724.5096     429.2976   1418.97766     724.5096     429.2976
   1418.96240     725.1201     429.6625   1418.96240     725.1201     429.6625
   1418.94714     725.6629     429.5391   1418.94714     725.6629     429.5391
   1418.93188     726.5625     430.5063   1418.93188     726.5625     430.5063
   1418.91663     727.4442     430.7657   1418.91663     727.4442     430.7657
   1418.90137     728.2451     431.2933   1418.90137     728.2451     431.2933
   1418.88611     728.5230     430.8615   1418.88611     728.5230     430.8615
   1418.87085     730.0185     432.3970   1418.87085     730.0185     432.3970
   1418.85559     729.9209     432.8705   1418.85559     729.9209     432.8705
   1418.84033     729.9772     432.6682   1418.84033     729.9772     432.6682
   1418.82507     730.8904     433.3933   1418.82507     730.8904     433.3933
   1418.80981     731.3887     433.5122   1418.80981     731.3887     433.5122
   1418.79456     732.5827     434.7689   1418.79456     732.5827     434.7689
   1418.77930     733.7368     434.8823   1418.77930     733.7368     434.8823
   1418.76404     733.1120     434.7881   1418.76404     733.1120     434.7881
   1418.74878     735.0939     435.5389   1418.74878     735.0939     435.5389
   1418.73352     735.3584     435.4862   1418.73352     735.3584     435.4862
   1418.71826     735.5769     436.3826   1418.71826     735.5769     436.3826
   1418.70300     736.5189     436.8089   1418.70300     736.5189     436.8089
   1418.68774     736.8077     436.9247   1418.68774     736.8077     436.9247
   1418.67249     738.3898     437.8798   1418.67249     738.3898     437.8798
   1418.65723     738.7738     438.1865   1418.65723     738.7738     438.1865
   1418.64197     739.1003     438.6915   1418.64197     739.1003     438.6915
   1418.62671     741.7451     438.7814   1418.62671     741.7451     438.7814
   1418.61145     741.7580     439.7204   1418.61145     741.7580     439.7204
   1418.59619     741.3298     440.4125   1418.59619     741.3298     440.4125
   1418.58093     743.4969     441.9741   1418.58093     743.4969     441.9741
   1418.56567     743.4883     441.9748   1418.56567     743.4883     441.9748
   1418.55042     743.9246     442.0774   1418.55042     743.9246     442.0774
   1418.53516     743.9944     442.8091   1418.53516     743.9944     442.8091
   1418.51990     746.3770     444.4042   1418.51990     746.3770     444.4042
   1418.50464     745.6501     443.7182   1418.50464     745.6501     443.7182
   1418.48938     747.8062     444.7649   1418.48938     747.8062     444.7649
   1418.47412     748.2483     445.7279   1418.47412     748.2483     445.7279
   1418.45886     748.7268     446.0002   1418.45886     748.7268     446.0002
   1418.44360     749.3970     446.8455   1418.44360     749.3970     446.8455
   1418.42834     750.3181     447.6730   1418.42834     750.3181     447.6730
   1418.41309     751.2635     448.4533   1418.41309     751.2635     448.4533
   1418.39783     752.1521     448.3351   1418.39783     752.1521     448.3351
   1418.38257     752.2643     449.1675   1418.38257     752.2643     449.1675
   1418.36731     753.5833     450.2600   1418.36731     753.5833     450.2600
   1418.35205     754.9904     451.3135   1418.35205     754.9904     451.3135
   1418.33679     755.3030     451.0295   1418.33679     755.3030     451.0295
   1418.32153     756.0378     451.8548   1418.32153     756.0378     451.8548
   1418.30627     757.2648     453.0687   1418.30627     757.2648     453.0687
   1418.29102     759.6744     453.8591   1418.29102     759.6744     453.8591
   1418.27576     759.5306     454.6959   1418.27576     759.5306     454.6959
   1418.26050     760.9568     455.7699   1418.26050     760.9568     455.7699
   1418.24524     761.0084     456.1744   1418.24524     761.0084     456.1744
   1418.22998     761.6197     456.8143   1418.22998     761.6197     456.8143
   1418.21472     762.4032     457.5609   1418.21472     762.4032     457.5609
   1418.19946     763.5725     458.3314   1418.19946     763.5725     458.3314
   1418.18420     764.5866     459.1142   1418.18420     764.5866     459.1142
   1418.16895     767.0195     460.0640   1418.16895     767.0195     460.0640
   1418.15369     767.6805     460.5194   1418.15369     767.6805     460.5194
   1418.13843     766.9756     461.3985   1418.13843     766.9756     461.3985
   1418.12317     769.2729     462.0175   1418.12317     769.2729     462.0175
   1418.10791     769.5312     463.0755   1418.10791     769.5312     463.0755
   1418.09265     772.0350     464.6295   1418.09265     772.0350     464.6295
   1418.07739     771.1351     464.6480   1418.07739     771.1351     464.6480
   1418.06213     773.0073     465.1470   1418.06213     773.0073     465.1470
   1418.04688     773.9598     466.9561   1418.04688     773.9598     466.9561
   1418.03162     775.2629     467.7089   1418.03162     775.2629     467.7089
   1418.01636     775.6315     468.1750   1418.01636     775.6315     468.1750
   1418.00110     776.1651     468.9312   1418.00110     776.1651     468.9312
   1417.98584     777.5682     470.4806   1417.98584     777.5682     470.4806
   1417.97058     778.9952     470.7684   1417.97058     778.9952     470.7684
   1417.95532     779.2427     472.0661   1417.95532     779.2427     472.0661
   1417.94006     780.8300     472.9375   1417.94006     780.8300     472.9375
   1417.92480     783.3980     474.1613   1417.92480     783.3980     474.1613
   1417.90955     782.5284     475.3022   1417.90955     782.5284     475.3022
   1417.89429     784.0275     475.6385   1417.89429     784.0275     475.6385
   1417.87903     785.2253     477.3417   1417.87903     785.2253     477.3417
   1417.86377     786.3448     476.9241   1417.86377     786.3448     476.9241
   1417.84851     786.6874     477.3882   1417.84851     786.6874     477.3882
   1417.83325     788.1906     479.2105   1417.83325     788.1906     479.2105
   1417.81799     789.3073     480.1685   1417.81799     789.3073     480.1685
   1417.80273     790.1420     480.4366   1417.80273     790.1420     480.4366
   1417.78748     790.9642     481.0566   1417.78748     790.9642     481.0566
   1417.77222     792.9932     481.9721   1417.77222     792.9932     481.9721
   1417.75696     793.5341     483.9878   1417.75696     793.5341     483.9878
   1417.74170     794.2953     484.3719   1417.74170     794.2953     484.3719
   1417.72644     795.5181     484.9755   1417.72644     795.5181     484.9755
   1417.71118     795.8312     486.3192   1417.71118     795.8312     486.3192
   1417.69592     797.8633     486.4682   1417.69592     797.8633     486.4682
   1417.68066     798.6335     488.2605   1417.68066     798.6335     488.2605
   1417.66541     800.2864     488.8180   1417.66541     800.2864     488.8180
   1417.65015     801.0563     489.7482   1417.65015     801.0563     489.7482
   1417.63489     802.6863     489.9940   1417.63489     802.6863     489.9940
   1417.61963     803.2267     490.7928   1417.61963     803.2267     490.7928
   1417.60437     804.2845     492.2057   1417.60437     804.2845     492.2057
   1417.58911     804.8649     492.6621   1417.58911     804.8649     492.6621
   1417.57385     806.3541     494.3781   1417.57385     806.3541     494.3781
   1417.55859     808.5190     494.7099   1417.55859     808.5190     494.7099
   1417.54333     807.1653     496.2294   1417.54333     807.1653     496.2294
   1417.52808     808.3137     497.0335   1417.52808     808.3137     497.0335
   1417.51282     812.4541     497.6935   1417.51282     812.4541     497.6935
   1417.49756     811.4517     498.0672   1417.49756     811.4517     498.0672
   1417.48230     812.2466     499.3837   1417.48230     812.2466     499.3837
   1417.46704     813.2981     499.5093   1417.46704     813.2981     499.5093
   1417.45178     813.9626     501.2866   1417.45178     813.9626     501.2866
   1417.43652     816.5720     501.5709   1417.43652     816.5720     501.5709
   1417.42126     816.2346     502.7093   1417.42126     816.2346     502.7093
   1417.40601     816.8512     503.3431   1417.40601     816.8512     503.3431
   1417.39075     819.0245     504.9311   1417.39075     819.0245     504.9311
   1417.37549     819.6787     505.2949   1417.37549     819.6787     505.2949
   1417.36023     820.4916     506.5404   1417.36023     820.4916     506.5404
   1417.34497     821.9447     507.3338   1417.34497     821.9447     507.3338
   1417.32971     822.6552     508.9226   1417.32971     822.6552     508.9226
   1417.31445     825.0909     508.7931   1417.31445     825.0909     508.7931
   1417.29919     825.4422     509.9256   1417.29919     825.4422     509.9256
   1417.28394     825.8811     511.2440   1417.28394     825.8811     511.2440
   1417.26868     826.2543     510.8698   1417.26868     826.2543     510.8698
   1417.25342     828.1630     512.1222   1417.25342     828.1630     512.1222
   1417.23816     827.8411     513.1299   1417.23816     827.8411     513.1299
   1417.22290     830.8069     514.4283   1417.22290     830.8069     514.4283
   1417.20764     830.3635     515.1926   1417.20764     830.3635     515.1926
   1417.19238     831.2764     515.9119   1417.19238     831.2764     515.9119
   1417.17712     833.2302     516.1097   1417.17712     833.2302     516.1097
   1417.16187     833.7941     517.2774   1417.16187     833.7941     517.2774
   1417.14661     834.3080     517.6386   1417.14661     834.3080     517.6386
   1417.13135     834.6790     518.0772   1417.13135     834.6790     518.0772
   1417.11609     836.7097     519.2425   1417.11609     836.7097     519.2425
   1417.10083     834.7251     520.5197   1417.10083     834.7251     520.5197
   1417.08557     838.5055     519.3922   1417.08557     838.5055     519.3922
   1417.07031     838.5156     521.0051   1417.07031     838.5156     521.0051
   1417.05505     839.1531     522.0035   1417.05505     839.1531     522.0035
   1417.03979     840.4274     522.5942   1417.03979     840.4274     522.5942
   1417.02454     840.8066     524.1166   1417.02454     840.8066     524.1166
   1417.00928     842.6411     523.8581   1417.00928     842.6411     523.8581
   1416.99402     840.6365     525.4311   1416.99402     840.6365     525.4311
   1416.97876     843.2151     525.5305   1416.97876     843.2151     525.5305
   1416.96350     842.7233     525.7432   1416.96350     842.7233     525.7432
   1416.94824     845.7894     526.7313   1416.94824     845.7894     526.7313
   1416.93298     844.3590     527.6577   1416.93298     844.3590     527.6577
   1416.91772     846.1712     528.4957   1416.91772     846.1712     528.4957
   1416.90247     846.9120     528.6658   1416.90247     846.9120     528.6658
   1416.88721     847.5758     529.0921   1416.88721     847.5758     529.0921
   1416.87195     848.8518     529.2325   1416.87195     848.8518     529.2325
   1416.85669     848.9478     530.3619   1416.85669     848.9478     530.3619
   1416.84143     849.6030     530.4186   1416.84143     849.6030     530.4186
   1416.82617     848.4981     530.4106   1416.82617     848.4981     530.4106
   1416.81091     850.0610     531.0656   1416.81091     850.0610     531.0656
   1416.79565     849.8822     531.6879   1416.79565     849.8822     531.6879
   1416.78040     851.0463     533.0279   1416.78040     851.0463     533.0279
   1416.76514     851.7027     532.6556   1416.76514     851.7027     532.6556
   1416.74988     852.9191     533.1701   1416.74988     852.9191     533.1701
   1416.73462     853.0825     533.1048   1416.73462     853.0825     533.1048
   1416.71936     853.9752     533.4557   1416.71936     853.9752     533.4557
   1416.70410     853.6837     534.0034   1416.70410     853.6837     534.0034
   1416.68884     854.2971     534.1479   1416.68884     854.2971     534.1479
   1416.67358     853.3760     534.4288   1416.67358     853.3760     534.4288
   1416.65833     854.5896     534.8330   1416.65833     854.5896     534.8330
   1416.64307     855.1606     535.4644   1416.64307     855.1606     535.4644
   1416.62781     856.1946     535.4613   1416.62781     856.1946     535.4613
   1416.61255     855.6205     535.4659   1416.61255     855.6205     535.4659
   1416.59729     855.9311     536.4308   1416.59729     855.9311     536.4308
   1416.58203     856.7043     535.8661   1416.58203     856.7043     535.8661
   1416.56677     857.4323     535.7768   1416.56677     857.4323     535.7768
   1416.55151     858.0664     536.4160   1416.55151     858.0664     536.4160
   1416.53625     858.7241     536.0312   1416.53625     858.7241     536.0312
   1416.52100     857.0302     536.0904   1416.52100     857.0302     536.0904
   1416.50574     858.5769     536.7402   1416.50574     858.5769     536.7402
   1416.49048     857.2229     536.5406   1416.49048     857.2229     536.5406
   1416.47522     857.5546     536.7006   1416.47522     857.5546     536.7006
   1416.45996     858.7305     535.8896   1416.45996     858.7305     535.8896
   1416.44470     858.7035     537.5610   1416.44470     858.7035     537.5610
   1416.42944     859.0761     537.0446   1416.42944     859.0761     537.0446
   1416.41418     859.0067     537.2839   1416.41418     859.0067     537.2839
   1416.39893     858.8407     537.5774   1416.39893     858.8407     537.5774
   1416.38367     859.7804     537.0647   1416.38367     859.7804     537.0647
   1416.36841     858.6499     536.6477   1416.36841     858.6499     536.6477
   1416.35315     860.2206     536.9837   1416.35315     860.2206     536.9837
   1416.33789     858.2835     536.3287   1416.33789     858.2835     536.3287
   1416.32263     860.1147     536.8076   1416.32263     860.1147     536.8076
   1416.30737     857.1383     535.8060   1416.30737     857.1383     535.8060
   1416.29211     858.1729     535.7930   1416.29211     858.1729     535.7930
   1416.27686     859.5952     536.2519   1416.27686     859.5952     536.2519
   1416.26160     858.0721     535.3872   1416.26160     858.0721     535.3872
   1416.24634     859.2120     535.1768   1416.24634     859.2120     535.1768
   1416.23108     857.6143     535.4110   1416.23108     857.6143     535.4110
   1416.21582     858.5834     535.2022   1416.21582     858.5834     535.2022
   1416.20056     857.9176     534.9826   1416.20056     857.9176     534.9826
   1416.18530     857.8492     534.4900   1416.18530     857.8492     534.4900
   1416.17004     856.8973     534.5794   1416.17004     856.8973     534.5794
   1416.15479     857.9103     534.0219   1416.15479     857.9103     534.0219
   1416.13953     856.9932     533.7405   1416.13953     856.9932     533.7405
   1416.12427     857.2084     533.9015   1416.12427     857.2084     533.9015
   1416.10901     855.6308     533.3555   1416.10901     855.6308     533.3555
   1416.09375     856.8258     533.5961   1416.09375     856.8258     533.5961
   1416.07849     856.3306     531.9174   1416.07849     856.3306     531.9174
   1416.06323     855.0895     532.1478   1416.06323     855.0895     532.1478
   1416.04797     855.1690     531.5874   1416.04797     855.1690     531.5874
   1416.03271     855.6287     531.9612   1416.03271     855.6287     531.9612
   1416.01746     853.9901     531.6661   1416.01746     853.9901     531.6661
   1416.00220     853.4096     531.1241   1416.00220     853.4096     531.1241
   1415.98694     853.8724     530.3153   1415.98694     853.8724     530.3153
   1415.97168     853.2954     530.7995   1415.97168     853.2954     530.7995
   1415.95642     852.3792     530.0147   1415.95642     852.3792     530.0147
   1415.94116     853.4323     529.6840   1415.94116     853.4323     529.6840
   1415.92590     851.7296     529.6720   1415.92590     851.7296     529.6720
   1415.91064     850.1244     529.0771   1415.91064     850.1244     529.0771
   1415.89539     851.7920     528.6036   1415.89539     851.7920     528.6036
   1415.88013     848.9506     528.7950   1415.88013     848.9506     528.7950
   1415.86487     848.9484     527.1266   1415.86487     848.9484     527.1266
   1415.84961     848.2427     526.6577   1415.84961     848.2427     526.6577
   1415.83435     848.2628     526.8851   1415.83435     848.2628     526.8851
   1415.81909     847.3539     525.9368   1415.81909     847.3539     525.9368
   1415.80383     846.7385     525.9642   1415.80383     846.7385     525.9642
   1415.78857     847.2083     526.2733   1415.78857     847.2083     526.2733
   1415.77332     846.6856     524.6938   1415.77332     846.6856     524.6938
   1415.75806     845.4722     524.6741   1415.75806     845.4722     524.6741
   1415.74280     844.1411     524.3255   1415.74280     844.1411     524.3255
   1415.72754     843.9788     523.4935   1415.72754     843.9788     523.4935
   1415.71228     843.0026     523.1086   1415.71228     843.0026     523.1086
   1415.69702     842.2885     521.5151   1415.69702     842.2885     521.5151
   1415.68176     841.7172     521.4164   1415.68176     841.7172     521.4164
   1415.66650     840.1113     521.1177   1415.66650     840.1113     521.1177
   1415.65125     840.9036     521.3417   1415.65125     840.9036     521.3417
   1415.63599     839.8583     520.5552   1415.63599     839.8583     520.5552
   1415.62073     838.2747     520.4655   1415.62073     838.2747     520.4655
   1415.60547     836.8843     520.1921   1415.60547     836.8843     520.1921
   1415.59021     837.0039     518.8160   1415.59021     837.0039     518.8160
   1415.57495     835.4462     518.1027   1415.57495     835.4462     518.1027
   1415.55969     833.1123     517.7966   1415.55969     833.1123     517.7966
   1415.54443     833.7563     516.8621   1415.54443     833.7563     516.8621
   1415.52917     833.1241     516.5204   1415.52917     833.1241     516.5204
   1415.51392     832.1105     516.0622   1415.51392     832.1105     516.0622
   1415.49866     831.4064     515.7949   1415.49866     831.4064     515.7949
   1415.48340     830.6752     515.9293   1415.48340     830.6752     515.9293
   1415.46814     829.5133     514.3416   1415.46814     829.5133     514.3416
   1415.45288     826.6672     514.0995   1415.45288     826.6672     514.0995
   1415.43762     827.5970     513.5452   1415.43762     827.5970     513.5452
   1415.42236     826.6428     512.4952   1415.42236     826.6428     512.4952
   1415.40710     824.5223     512.6078   1415.40710     824.5223     512.6078
   1415.39185     824.8333     511.3322   1415.39185     824.8333     511.3322
   1415.37659     823.2625     510.9598   1415.37659     823.2625     510.9598
   1415.36133     821.6755     509.8165   1415.36133     821.6755     509.8165
   1415.34607     820.0515     509.3546   1415.34607     820.0515     509.3546
   1415.33081     819.6708     508.6291   1415.33081     819.6708     508.6291
   1415.31555     818.8107     508.3357   1415.31555     818.8107     508.3357
   1415.30029     818.4360     507.5229   1415.30029     818.4360     507.5229
   1415.28503     815.7695     506.9967   1415.28503     815.7695     506.9967
   1415.26978     815.5602     505.6013   1415.26978     815.5602     505.6013
   1415.25452     812.6661     504.6370   1415.25452     812.6661     504.6370
   1415.23926     810.2541     505.1888   1415.23926     810.2541     505.1888
   1415.22400     811.1600     504.3159   1415.22400     811.1600     504.3159
   1415.20874     807.4646     502.6683   1415.20874     807.4646     502.6683
   1415.19348     807.4630     502.1251   1415.19348     807.4630     502.1251
   1415.17822     806.4494     502.5237   1415.17822     806.4494     502.5237
   1415.16296     804.4022     500.8125   1415.16296     804.4022     500.8125
   1415.14771     801.9015     500.5946   1415.14771     801.9015     500.5946
   1415.13245     802.0015     499.4417   1415.13245     802.0015     499.4417
   1415.11719     800.2778     498.3711   1415.11719     800.2778     498.3711
   1415.10193     797.6318     497.5057   1415.10193     797.6318     497.5057
   1415.08667     796.1987     496.7270   1415.08667     796.1987     496.7270
   1415.07141     794.8364     496.4384   1415.07141     794.8364     496.4384
   1415.05615     793.4688     495.3432   1415.05615     793.4688     495.3432
   1415.04089     793.0882     494.6423   1415.04089     793.0882     494.6423
   1415.02563     790.1781     493.6599   1415.02563     790.1781     493.6599
   1415.01038     788.5857     492.1152   1415.01038     788.5857     492.1152
   1414.99512     787.5364     491.4267   1414.99512     787.5364     491.4267
   1414.97986     786.0233     491.0550   1414.97986     786.0233     491.0550
   1414.96460     784.0547     489.6879   1414.96460     784.0547     489.6879
   1414.94934     781.7120     488.5602   1414.94934     781.7120     488.5602
   1414.93408     779.0298     487.6355   1414.93408     779.0298     487.6355
   1414.91882     778.5310     487.0976   1414.91882     778.5310     487.0976
   1414.90356     775.6379     485.5905   1414.90356     775.6379     485.5905
   1414.88831     774.8616     485.2604   1414.88831     774.8616     485.2604
   1414.87305     772.5304     484.6815   1414.87305     772.5304     484.6815
   1414.85779     770.1328     482.9516   1414.85779     770.1328     482.9516
   1414.84253     768.6887     482.4851   1414.84253     768.6887     482.4851
   1414.82727     764.3763     481.0304   1414.82727     764.3763     481.0304
   1414.81201     763.8458     479.0489   1414.81201     763.8458     479.0489
   1414.79675     762.1153     479.3474   1414.79675     762.1153     479.3474
   1414.78149     758.4813     477.7621   1414.78149     758.4813     477.7621
   1414.76624     758.4824     477.1273   1414.76624     758.4824     477.1273
   1414.75098     755.7794     475.9227   1414.75098     755.7794     475.9227
   1414.73572     753.8878     474.9723   1414.73572     753.8878     474.9723
   1414.72046     751.2598     473.6454   1414.72046     751.2598     473.6454
   1414.70520     749.3267     473.5503   1414.70520     749.3267     473.5503
   1414.68994     746.9811     471.8846   1414.68994     746.9811     471.8846
   1414.67468     745.2514     470.5985   1414.67468     745.2514     470.5985
   1414.65942     741.9818     468.8148   1414.65942     741.9818     468.8148
   1414.64417     738.3478     468.0859   1414.64417     738.3478     468.0859
   1414.62891     737.0177     466.7216   1414.62891     737.0177     466.7216
   1414.61365     735.8446     466.5564   1414.61365     735.8446     466.5564
   1414.59839     731.4709     464.7315   1414.59839     731.4709     464.7315
   1414.58313     731.0544     463.2231   1414.58313     731.0544     463.2231
   1414.56787     727.9956     462.6445   1414.56787     727.9956     462.6445
   1414.55261     724.9432     461.0696   1414.55261     724.9432     461.0696
   1414.53735     723.3075     460.0727   1414.53735     723.3075     460.0727
   1414.52209     720.4442     458.3915   1414.52209     720.4442     458.3915
   1414.50684     718.5580     456.3484   1414.50684     718.5580     456.3484
   1414.49158     714.4185     455.1980   1414.49158     714.4185     455.1980
   1414.47632     711.5361     454.0633   1414.47632     711.5361     454.0633
   1414.46106     709.1426     452.9016   1414.46106     709.1426     452.9016
   1414.44580     708.2481     451.2564   1414.44580     708.2481     451.2564
   1414.43054     705.4841     450.8586   1414.43054     705.4841     450.8586
   1414.41528     702.5715     448.9673   1414.41528     702.5715     448.9673
   1414.40002     700.2214     447.1473   1414.40002     700.2214     447.1473
   1414.38477     697.7028     446.2589   1414.38477     697.7028     446.2589
   1414.36951     694.7624     445.2043   1414.36951     694.7624     445.2043
   1414.35425     692.0306     443.5249   1414.35425     692.0306     443.5249
   1414.33899     688.7911     442.1992   1414.33899     688.7911     442.1992
   1414.32373     686.4947     440.8960   1414.32373     686.4947     440.8960
   1414.30847     683.9070     439.1962   1414.30847     683.9070     439.1962
   1414.29321     681.6417     438.0428   1414.29321     681.6417     438.0428
   1414.27795     676.3573     436.1295   1414.27795     676.3573     436.1295
   1414.26270     674.7329     434.3151   1414.26270     674.7329     434.3151
   1414.24744     671.2900     433.5057   1414.24744     671.2900     433.5057
   1414.23218     669.4693     431.7460   1414.23218     669.4693     431.7460
   1414.21692     665.2631     429.7453   1414.21692     665.2631     429.7453
   1414.20166     662.2872     429.0046   1414.20166     662.2872     429.0046
   1414.18640     659.1683     426.9809   1414.18640     659.1683     426.9809
   1414.17114     656.5157     425.5601   1414.17114     656.5157     425.5601
   1414.15588     654.3483     424.3019   1414.15588     654.3483     424.3019
   1414.14062     649.8115     422.2645   1414.14062     649.8115     422.2645
   1414.12537     647.6854     421.1238   1414.12537     647.6854     421.1238
   1414.11011     644.2301     418.7443   1414.11011     644.2301     418.7443
   1414.09485     641.9930     417.7865   1414.09485     641.9930     417.7865
   1414.07959     639.0148     416.7437   1414.07959     639.0148     416.7437
   1414.06433     635.4643     414.5277   1414.06433     635.4643     414.5277
   1414.04907     633.0292     412.6913   1414.04907     633.0292     412.6913
   1414.03381     629.6384     411.3772   1414.03381     629.6384     411.3772
   1414.01855     627.7439     409.8971   1414.01855     627.7439     409.8971
   1414.00330     650.3301     416.9164   1414.00330     650.3301     416.9164
   1413.98804     621.1071     407.0974   1413.98804     621.1071     407.0974
   1413.97278     615.6960     404.6885   1413.97278     615.6960     404.6885
   1413.95752     613.8770     402.8898   1413.95752     613.8770     402.8898
   1413.94226     610.6446     400.6888   1413.94226     610.6446     400.6888
   1413.92700     607.2772     399.9840   1413.92700     607.2772     399.9840
   1413.91174     604.4045     398.0145   1413.91174     604.4045     398.0145
   1413.89648     601.4156     396.4055   1413.89648     601.4156     396.4055
   1413.88123     596.7031     394.6607   1413.88123     596.7031     394.6607
   1413.86597     594.2305     392.6766   1413.86597     594.2305     392.6766
   1413.85071     591.3609     391.5459   1413.85071     591.3609     391.5459
   1413.83545     587.8686     389.4832   1413.83545     587.8686     389.4832
   1413.82019     584.2732     387.6343   1413.82019     584.2732     387.6343
   1413.80493     580.8998     386.5613   1413.80493     580.8998     386.5613
   1413.78967     578.1093     384.5810   1413.78967     578.1093     384.5810
   1413.77441     574.7119     383.1768   1413.77441     574.7119     383.1768
   1413.75916     571.3845     380.8439   1413.75916     571.3845     380.8439
   1413.74390     567.6861     379.5415   1413.74390     567.6861     379.5415
   1413.72864     565.2522     377.9948   1413.72864     565.2522     377.9948
   1413.71338     560.8458     375.8884   1413.71338     560.8458     375.8884
   1413.69812     558.6783     374.3513   1413.69812     558.6783     374.3513
   1413.68286     555.2391     372.1556   1413.68286     555.2391     372.1556
   1413.66760     552.7460     370.1575   1413.66760     552.7460     370.1575
   1413.65234     549.7354     368.9043   1413.65234     549.7354     368.9043
   1413.63708     545.0170     367.1358   1413.63708     545.0170     367.1358
   1413.62183     542.1532     365.6715   1413.62183     542.1532     365.6715
   1413.60657     540.2781     363.9239   1413.60657     540.2781     363.9239
   1413.59131     536.2316     362.6741   1413.59131     536.2316     362.6741
   1413.57605     533.0210     360.2525   1413.57605     533.0210     360.2525
   1413.56079     529.1844     357.6546   1413.56079     529.1844     357.6546
   1413.54553     526.1246     357.2542   1413.54553     526.1246     357.2542
   1413.53027     522.7326     355.5894   1413.53027     522.7326     355.5894
   1413.51501     519.8103     353.4960   1413.51501     519.8103     353.4960
   1413.49976     517.5351     351.3756   1413.49976     517.5351     351.3756
   1413.48450     513.7028     350.2593   1413.48450     513.7028     350.2593
   1413.46924     510.1813     348.7291   1413.46924     510.1813     348.7291
   1413.45398     506.6913     346.4692   1413.45398     506.6913     346.4692
   1413.43872     504.5262     344.7829   1413.43872     504.5262     344.7829
   1413.42346     501.0970     343.4666   1413.42346     501.0970     343.4666
   1413.40820     498.6458     341.4528   1413.40820     498.6458     341.4528
   1413.39294     495.7607     339.8793   1413.39294     495.7607     339.8793
   1413.37769     492.6425     338.4647   1413.37769     492.6425     338.4647
   1413.36243     488.8493     336.8068   1413.36243     488.8493     336.8068
   1413.34717     486.0695     335.3652   1413.34717     486.0695     335.3652
   1413.33191     484.1102     333.6179   1413.33191     484.1102     333.6179
   1413.31665     481.0005     331.7551   1413.31665     481.0005     331.7551
   1413.30139     477.3273     330.2760   1413.30139     477.3273     330.2760
   1413.28613     474.4112     328.1212   1413.28613     474.4112     328.1212
   1413.27087     471.6285     327.3976   1413.27087     471.6285     327.3976
   1413.25562     469.7101     325.8607   1413.25562     469.7101     325.8607
   1413.24036     465.3956     323.7537   1413.24036     465.3956     323.7537
   1413.22510     463.3341     322.5928   1413.22510     463.3341     322.5928
   1413.20984     461.3995     321.2598   1413.20984     461.3995     321.2598
   1413.19458     458.1798     319.4402   1413.19458     458.1798     319.4402
   1413.17932     455.8214     317.9931   1413.17932     455.8214     317.9931
   1413.16406     452.5413     316.5794   1413.16406     452.5413     316.5794
   1413.14880     450.3100     314.1347   1413.14880     450.3100     314.1347
   1413.13354     447.7132     314.2465   1413.13354     447.7132     314.2465
   1413.11829     445.4635     312.1757   1413.11829     445.4635     312.1757
   1413.10303     442.9722     310.7637   1413.10303     442.9722     310.7637
   1413.08777     440.3262     309.6383   1413.08777     440.3262     309.6383
   1413.07251     437.0039     308.4987   1413.07251     437.0039     308.4987
   1413.05725     435.5284     306.5197   1413.05725     435.5284     306.5197
   1413.04199     432.7239     305.8575   1413.04199     432.7239     305.8575
   1413.02673     429.6679     304.1347   1413.02673     429.6679     304.1347
   1413.01147     428.4816     302.7056   1413.01147     428.4816     302.7056
   1412.99622     425.7293     301.4019   1412.99622     425.7293     301.4019
   1412.98096     424.0092     300.0402   1412.98096     424.0092     300.0402
   1412.96570     421.5540     298.6447   1412.96570     421.5540     298.6447
   1412.95044     420.2869     297.6009   1412.95044     420.2869     297.6009
   1412.93518     417.6363     296.9932   1412.93518     417.6363     296.9932
   1412.91992     415.4832     295.7759   1412.91992     415.4832     295.7759
   1412.90466     413.9616     294.1659   1412.90466     413.9616     294.1659
   1412.88940     411.4563     293.0690   1412.88940     411.4563     293.0690
   1412.87415     410.3145     292.1871   1412.87415     410.3145     292.1871
   1412.85889     407.7387     291.9361   1412.85889     407.7387     291.9361
   1412.84363     406.2949     290.2131   1412.84363     406.2949     290.2131
   1412.82837     404.4380     289.6678   1412.82837     404.4380     289.6678
   1412.81311     402.9230     288.4622   1412.81311     402.9230     288.4622
   1412.79785     400.4029     287.9183   1412.79785     400.4029     287.9183
   1412.78259     399.2209     286.7359   1412.78259     399.2209     286.7359
   1412.76733     398.2114     285.7502   1412.76733     398.2114     285.7502
   1412.75208     396.5687     285.6520   1412.75208     396.5687     285.6520
   1412.73682     394.6893     284.8144   1412.73682     394.6893     284.8144
   1412.72156     393.0594     283.6219   1412.72156     393.0594     283.6219
   1412.70630     391.7591     283.1620   1412.70630     391.7591     283.1620
   1412.69104     391.3918     283.0877   1412.69104     391.3918     283.0877
   1412.67578     389.3755     281.5904   1412.67578     389.3755     281.5904
   1412.66052     388.3787     281.0699   1412.66052     388.3787     281.0699
   1412.64526     387.3464     280.6047   1412.64526     387.3464     280.6047
   1412.63000     386.8564     279.9336   1412.63000     386.8564     279.9336
   1412.61475     385.7643     279.6339   1412.61475     385.7643     279.6339
   1412.59949     384.2911     279.2635   1412.59949     384.2911     279.2635
   1412.58423     383.5226     278.6024   1412.58423     383.5226     278.6024
   1412.56897     383.1899     278.5521   1412.56897     383.1899     278.5521
   1412.55371     382.0019     277.9896   1412.55371     382.0019     277.9896
   1412.53845     381.3616     277.3210   1412.53845     381.3616     277.3210
   1412.52319     380.2144     277.2698   1412.52319     380.2144     277.2698
   1412.50793     380.2419     277.5144   1412.50793     380.2419     277.5144
   1412.49268     379.2605     276.8000   1412.49268     379.2605     276.8000
   1412.47742     378.8906     276.7604   1412.47742     378.8906     276.7604
   1412.46216     378.7027     276.3384   1412.46216     378.7027     276.3384
   1412.44690     378.0169     276.2220   1412.44690     378.0169     276.2220
   1412.43164     378.4136     276.3189   1412.43164     378.4136     276.3189
   1412.41638     377.0719     276.5757   1412.41638     377.0719     276.5757
   1412.40112     377.6301     276.2098   1412.40112     377.6301     276.2098
   1412.38586     376.6698     276.5713   1412.38586     376.6698     276.5713
   1412.37061     377.6794     276.8736   1412.37061     377.6794     276.8736
   1412.35535     377.1095     276.8113   1412.35535     377.1095     276.8113
   1412.34009     376.9690     277.0217   1412.34009     376.9690     277.0217
   1412.32483     376.9955     277.3745   1412.32483     376.9955     277.3745
   1412.30957     377.5655     277.9929   1412.30957     377.5655     277.9929
   1412.29431     377.1658     277.8273   1412.29431     377.1658     277.8273
   1412.27905     377.5229     278.4775   1412.27905     377.5229     278.4775
   1412.26379     377.9680     278.8292   1412.26379     377.9680     278.8292
   1412.24854     378.4105     279.1932   1412.24854     378.4105     279.1932
   1412.23328     379.1469     279.5045   1412.23328     379.1469     279.5045
   1412.21802     379.1987     280.0853   1412.21802     379.1987     280.0853
   1412.20276     380.2670     281.0085   1412.20276     380.2670     281.0085