#     FILENAME=!Skynet_57528_lach-hhg-111_20380_20918.cyb.fits
#     BASENAME=Skynet_57528_lach-hhg-111_20380_20918
#     SRC_NAME=lach-hhg-111
#     OBSERVER=hhgmadison16_9500
#     DATE_OBS=2016-05-20T15:45:24.500
#        OBSID=20380
#      SCANNUM=20918
#          MJD=57528.6576
#          UTC=56814
#     SCANTYPE=track
#     DATAMODE=HIRES
#     TUNEFREQ=1420.0000
# Actual_FREQ1=1420.0000
# Actual_FREQ2=1420.0000
#    LO1Tuning=6870.000
#     RFFILTER=1355_1435
#        OBSBW=-15.6250
#        NCHAN=1024 
#        FOCUS=37.0709
#           RA=23:12:01.69
#          DEC=60:32:49.39
#      RA(hrs)=23.200500
#     DEC(deg)=60.547100
#    AZIM(deg)=322.384
#    ELEV(deg)=53.344
#     IFattens=11.00, 10.00
#      WARNING=None
#    TCAL_XL1=7.9635
#    TCAL_YR1=9.1340
#    TCAL_XL2=7.9635
#    TCAL_YR2=9.1340
#     TRX_XL1=11.7060
#     TRX_YR1=11.7060
#     TRX_XL2=11.7060
#     TRX_YR2=11.7060
#        TAVE=1.0000
#Freq1(MHz)          XL1          YR1  Freq2(MHz)          XL2          YR2 

   1427.81250     306.8560     238.1069   1427.81250     306.8560     238.1069
   1427.79724     307.6833     238.6763   1427.79724     307.6833     238.6763
   1427.78198     307.8467     239.3687   1427.78198     307.8467     239.3687
   1427.76672     308.7992     240.2320   1427.76672     308.7992     240.2320
   1427.75146     308.6885     240.5933   1427.75146     308.6885     240.5933
   1427.73621     309.8061     241.3493   1427.73621     309.8061     241.3493
   1427.72095     310.3228     242.4366   1427.72095     310.3228     242.4366
   1427.70569     311.7805     243.3401   1427.70569     311.7805     243.3401
   1427.69043     312.0169     244.3928   1427.69043     312.0169     244.3928
   1427.67517     312.8758     244.6819   1427.67517     312.8758     244.6819
   1427.65991     314.0718     246.2162   1427.65991     314.0718     246.2162
   1427.64465     315.2875     247.0185   1427.64465     315.2875     247.0185
   1427.62939     315.9702     247.9315   1427.62939     315.9702     247.9315
   1427.61414     316.7966     248.7715   1427.61414     316.7966     248.7715
   1427.59888     318.0586     249.9049   1427.59888     318.0586     249.9049
   1427.58362     318.9732     250.9762   1427.58362     318.9732     250.9762
   1427.56836     320.3528     252.0006   1427.56836     320.3528     252.0006
   1427.55310     321.3910     253.2854   1427.55310     321.3910     253.2854
   1427.53784     323.1666     254.4486   1427.53784     323.1666     254.4486
   1427.52258     323.9765     256.0782   1427.52258     323.9765     256.0782
   1427.50732     325.6748     257.0923   1427.50732     325.6748     257.0923
   1427.49207     326.9010     258.1516   1427.49207     326.9010     258.1516
   1427.47681     328.2272     259.1973   1427.47681     328.2272     259.1973
   1427.46155     329.9259     260.8150   1427.46155     329.9259     260.8150
   1427.44629     330.7610     261.8199   1427.44629     330.7610     261.8199
   1427.43103     332.4969     263.6736   1427.43103     332.4969     263.6736
   1427.41577     334.1995     264.6699   1427.41577     334.1995     264.6699
   1427.40051     336.1080     266.1108   1427.40051     336.1080     266.1108
   1427.38525     337.6198     267.0547   1427.38525     337.6198     267.0547
   1427.37000     339.4314     268.9320   1427.37000     339.4314     268.9320
   1427.35474     340.9774     270.8123   1427.35474     340.9774     270.8123
   1427.33948     342.1374     271.9954   1427.33948     342.1374     271.9954
   1427.32422     344.0344     273.7502   1427.32422     344.0344     273.7502
   1427.30896     346.0204     275.0769   1427.30896     346.0204     275.0769
   1427.29370     347.6958     276.8876   1427.29370     347.6958     276.8876
   1427.27844     349.9716     278.1971   1427.27844     349.9716     278.1971
   1427.26318     352.0577     280.0165   1427.26318     352.0577     280.0165
   1427.24792     353.9047     281.3987   1427.24792     353.9047     281.3987
   1427.23267     355.7577     283.0364   1427.23267     355.7577     283.0364
   1427.21741     356.9482     284.8427   1427.21741     356.9482     284.8427
   1427.20215     360.4494     286.6756   1427.20215     360.4494     286.6756
   1427.18689     361.2849     287.6714   1427.18689     361.2849     287.6714
   1427.17163     363.8751     289.1543   1427.17163     363.8751     289.1543
   1427.15637     366.0528     291.6889   1427.15637     366.0528     291.6889
   1427.14111     368.4856     293.1589   1427.14111     368.4856     293.1589
   1427.12585     369.5033     294.8336   1427.12585     369.5033     294.8336
   1427.11060     372.2831     295.9587   1427.11060     372.2831     295.9587
   1427.09534     374.9269     298.3162   1427.09534     374.9269     298.3162
   1427.08008     376.8845     300.4283   1427.08008     376.8845     300.4283
   1427.06482     379.0346     301.9929   1427.06482     379.0346     301.9929
   1427.04956     381.5806     303.7571   1427.04956     381.5806     303.7571
   1427.03430     384.0291     305.1685   1427.03430     384.0291     305.1685
   1427.01904     386.7303     307.2851   1427.01904     386.7303     307.2851
   1427.00378     388.3270     308.9658   1427.00378     388.3270     308.9658
   1426.98853     390.5245     310.7632   1426.98853     390.5245     310.7632
   1426.97327     393.5570     312.4580   1426.97327     393.5570     312.4580
   1426.95801     395.8019     314.4280   1426.95801     395.8019     314.4280
   1426.94275     398.0657     316.2936   1426.94275     398.0657     316.2936
   1426.92749     399.9290     317.9979   1426.92749     399.9290     317.9979
   1426.91223     403.4284     320.3482   1426.91223     403.4284     320.3482
   1426.89697     404.3116     321.8130   1426.89697     404.3116     321.8130
   1426.88171     408.4818     324.1751   1426.88171     408.4818     324.1751
   1426.86646     409.6640     326.0929   1426.86646     409.6640     326.0929
   1426.85120     412.5331     327.1637   1426.85120     412.5331     327.1637
   1426.83594     414.8691     329.6842   1426.83594     414.8691     329.6842
   1426.82068     417.5147     331.3972   1426.82068     417.5147     331.3972
   1426.80542     420.5815     332.6583   1426.80542     420.5815     332.6583
   1426.79016     422.2725     335.1212   1426.79016     422.2725     335.1212
   1426.77490     425.1742     336.8194   1426.77490     425.1742     336.8194
   1426.75964     427.2148     339.1462   1426.75964     427.2148     339.1462
   1426.74438     429.9085     340.7659   1426.74438     429.9085     340.7659
   1426.72913     433.1274     342.4288   1426.72913     433.1274     342.4288
   1426.71387     435.0329     344.3252   1426.71387     435.0329     344.3252
   1426.69861     436.9644     345.8787   1426.69861     436.9644     345.8787
   1426.68335     439.9326     347.7656   1426.68335     439.9326     347.7656
   1426.66809     442.5022     349.3731   1426.66809     442.5022     349.3731
   1426.65283     445.7232     351.9426   1426.65283     445.7232     351.9426
   1426.63757     448.2554     353.4999   1426.63757     448.2554     353.4999
   1426.62231     452.4076     356.7574   1426.62231     452.4076     356.7574
   1426.60706     453.6636     357.7510   1426.60706     453.6636     357.7510
   1426.59180     455.2867     358.8964   1426.59180     455.2867     358.8964
   1426.57654     458.0762     361.0887   1426.57654     458.0762     361.0887
   1426.56128     460.5755     362.1607   1426.56128     460.5755     362.1607
   1426.54602     463.1205     364.6822   1426.54602     463.1205     364.6822
   1426.53076     465.1541     365.5517   1426.53076     465.1541     365.5517
   1426.51550     467.5554     367.8373   1426.51550     467.5554     367.8373
   1426.50024     471.1196     370.0431   1426.50024     471.1196     370.0431
   1426.48499     473.0085     371.1889   1426.48499     473.0085     371.1889
   1426.46973     475.4332     373.5464   1426.46973     475.4332     373.5464
   1426.45447     477.8182     375.3601   1426.45447     477.8182     375.3601
   1426.43921     480.6994     376.6375   1426.43921     480.6994     376.6375
   1426.42395     482.5840     378.2361   1426.42395     482.5840     378.2361
   1426.40869     485.1462     380.5284   1426.40869     485.1462     380.5284
   1426.39343     488.0420     381.9229   1426.39343     488.0420     381.9229
   1426.37817     490.3525     383.3508   1426.37817     490.3525     383.3508
   1426.36292     492.5344     384.9915   1426.36292     492.5344     384.9915
   1426.34766     494.8438     387.2211   1426.34766     494.8438     387.2211
   1426.33240     497.0905     388.6858   1426.33240     497.0905     388.6858
   1426.31714     499.2839     390.4059   1426.31714     499.2839     390.4059
   1426.30188     501.0940     391.5816   1426.30188     501.0940     391.5816
   1426.28662     504.0991     393.4437   1426.28662     504.0991     393.4437
   1426.27136     506.1349     394.5697   1426.27136     506.1349     394.5697
   1426.25610     507.7505     396.9405   1426.25610     507.7505     396.9405
   1426.24084     510.9857     397.2943   1426.24084     510.9857     397.2943
   1426.22559     513.4037     399.7340   1426.22559     513.4037     399.7340
   1426.21033     515.1634     400.2819   1426.21033     515.1634     400.2819
   1426.19507     517.4744     402.9254   1426.19507     517.4744     402.9254
   1426.17981     519.6296     404.2125   1426.17981     519.6296     404.2125
   1426.16455     520.8307     405.5897   1426.16455     520.8307     405.5897
   1426.14929     523.6394     407.6696   1426.14929     523.6394     407.6696
   1426.13403     526.2075     408.3643   1426.13403     526.2075     408.3643
   1426.11877     528.1345     410.3901   1426.11877     528.1345     410.3901
   1426.10352     530.9407     411.8464   1426.10352     530.9407     411.8464
   1426.08826     532.3906     413.3928   1426.08826     532.3906     413.3928
   1426.07300     535.5413     414.5022   1426.07300     535.5413     414.5022
   1426.05774     537.4764     416.1308   1426.05774     537.4764     416.1308
   1426.04248     537.6698     416.8234   1426.04248     537.6698     416.8234
   1426.02722     541.4127     419.1804   1426.02722     541.4127     419.1804
   1426.01196     542.7988     419.3232   1426.01196     542.7988     419.3232
   1425.99670     544.7029     421.0138   1425.99670     544.7029     421.0138
   1425.98145     546.5692     422.2744   1425.98145     546.5692     422.2744
   1425.96619     548.8361     423.6064   1425.96619     548.8361     423.6064
   1425.95093     549.9081     425.6263   1425.95093     549.9081     425.6263
   1425.93567     551.5309     426.6169   1425.93567     551.5309     426.6169
   1425.92041     553.8707     428.3125   1425.92041     553.8707     428.3125
   1425.90515     555.7059     428.8335   1425.90515     555.7059     428.8335
   1425.88989     556.6898     430.6218   1425.88989     556.6898     430.6218
   1425.87463     559.7805     432.1433   1425.87463     559.7805     432.1433
   1425.85938     560.5073     432.3582   1425.85938     560.5073     432.3582
   1425.84412     562.4418     434.3807   1425.84412     562.4418     434.3807
   1425.82886     563.6171     435.4126   1425.82886     563.6171     435.4126
   1425.81360     566.0142     436.5474   1425.81360     566.0142     436.5474
   1425.79834     568.0272     437.8354   1425.79834     568.0272     437.8354
   1425.78308     569.3663     438.5767   1425.78308     569.3663     438.5767
   1425.76782     571.2000     440.8339   1425.76782     571.2000     440.8339
   1425.75256     572.2914     441.0308   1425.75256     572.2914     441.0308
   1425.73730     573.4040     442.3423   1425.73730     573.4040     442.3423
   1425.72205     575.3752     443.7859   1425.72205     575.3752     443.7859
   1425.70679     576.8808     444.4792   1425.70679     576.8808     444.4792
   1425.69153     577.4224     446.1466   1425.69153     577.4224     446.1466
   1425.67627     579.5056     447.0171   1425.67627     579.5056     447.0171
   1425.66101     580.6381     448.1099   1425.66101     580.6381     448.1099
   1425.64575     582.0167     449.9064   1425.64575     582.0167     449.9064
   1425.63049     584.0317     451.0464   1425.63049     584.0317     451.0464
   1425.61523     583.8462     451.9699   1425.61523     583.8462     451.9699
   1425.59998     585.9094     453.2033   1425.59998     585.9094     453.2033
   1425.58472     588.1190     453.2260   1425.58472     588.1190     453.2260
   1425.56946     589.9890     454.7417   1425.56946     589.9890     454.7417
   1425.55420     590.5012     455.0421   1425.55420     590.5012     455.0421
   1425.53894     591.6720     456.2306   1425.53894     591.6720     456.2306
   1425.52368     592.1339     457.5884   1425.52368     592.1339     457.5884
   1425.50842     594.0381     458.1911   1425.50842     594.0381     458.1911
   1425.49316     594.3407     460.1648   1425.49316     594.3407     460.1648
   1425.47791     595.2162     461.1997   1425.47791     595.2162     461.1997
   1425.46265     597.5407     461.2921   1425.46265     597.5407     461.2921
   1425.44739     597.7479     462.8649   1425.44739     597.7479     462.8649
   1425.43213     598.4607     463.0899   1425.43213     598.4607     463.0899
   1425.41687     600.1716     463.5687   1425.41687     600.1716     463.5687
   1425.40161     600.5101     465.0838   1425.40161     600.5101     465.0838
   1425.38635     601.5566     466.7094   1425.38635     601.5566     466.7094
   1425.37109     602.8357     467.2834   1425.37109     602.8357     467.2834
   1425.35583     603.8065     467.7999   1425.35583     603.8065     467.7999
   1425.34058     604.6252     469.1844   1425.34058     604.6252     469.1844
   1425.32532     605.4319     469.7393   1425.32532     605.4319     469.7393
   1425.31006     605.4460     471.3021   1425.31006     605.4460     471.3021
   1425.29480     606.0107     471.8080   1425.29480     606.0107     471.8080
   1425.27954     606.4238     471.7348   1425.27954     606.4238     471.7348
   1425.26428     608.8139     473.7381   1425.26428     608.8139     473.7381
   1425.24902     608.9840     474.3516   1425.24902     608.9840     474.3516
   1425.23376     609.9538     475.5414   1425.23376     609.9538     475.5414
   1425.21851     609.6114     475.3102   1425.21851     609.6114     475.3102
   1425.20325     611.5314     475.4135   1425.20325     611.5314     475.4135
   1425.18799     610.6669     476.7780   1425.18799     610.6669     476.7780
   1425.17273     612.2134     478.6422   1425.17273     612.2134     478.6422
   1425.15747     612.4694     478.4176   1425.15747     612.4694     478.4176
   1425.14221     613.9152     479.3310   1425.14221     613.9152     479.3310
   1425.12695     613.9988     480.3559   1425.12695     613.9988     480.3559
   1425.11169     613.6188     480.6753   1425.11169     613.6188     480.6753
   1425.09644     615.4886     481.1230   1425.09644     615.4886     481.1230
   1425.08118     616.3953     482.4193   1425.08118     616.3953     482.4193
   1425.06592     616.2136     482.6613   1425.06592     616.2136     482.6613
   1425.05066     616.8555     483.4452   1425.05066     616.8555     483.4452
   1425.03540     616.7518     484.6571   1425.03540     616.7518     484.6571
   1425.02014     617.6046     485.2416   1425.02014     617.6046     485.2416
   1425.00488     617.5953     485.6637   1425.00488     617.5953     485.6637
   1424.98962     617.5928     486.2251   1424.98962     617.5928     486.2251
   1424.97437     618.5364     487.0269   1424.97437     618.5364     487.0269
   1424.95911     618.0193     487.4306   1424.95911     618.0193     487.4306
   1424.94385     620.1578     488.0928   1424.94385     620.1578     488.0928
   1424.92859     619.6790     489.6319   1424.92859     619.6790     489.6319
   1424.91333     619.9656     489.2500   1424.91333     619.9656     489.2500
   1424.89807     621.0815     490.3224   1424.89807     621.0815     490.3224
   1424.88281     620.8552     490.6978   1424.88281     620.8552     490.6978
   1424.86755     620.4490     491.5164   1424.86755     620.4490     491.5164
   1424.85229     620.1832     492.0906   1424.85229     620.1832     492.0906
   1424.83704     620.8146     492.7102   1424.83704     620.8146     492.7102
   1424.82178     621.0511     493.8467   1424.82178     621.0511     493.8467
   1424.80652     621.5106     493.0313   1424.80652     621.5106     493.0313
   1424.79126     621.8605     494.1672   1424.79126     621.8605     494.1672
   1424.77600     621.7935     494.4111   1424.77600     621.7935     494.4111
   1424.76074     621.3198     495.0455   1424.76074     621.3198     495.0455
   1424.74548     621.6264     495.8479   1424.74548     621.6264     495.8479
   1424.73022     622.8242     496.6938   1424.73022     622.8242     496.6938
   1424.71497     622.5566     496.6433   1424.71497     622.5566     496.6433
   1424.69971     621.1265     497.1455   1424.69971     621.1265     497.1455
   1424.68445     622.2290     497.7177   1424.68445     622.2290     497.7177
   1424.66919     622.1571     498.6841   1424.66919     622.1571     498.6841
   1424.65393     622.0004     498.8750   1424.65393     622.0004     498.8750
   1424.63867     622.2023     499.6219   1424.63867     622.2023     499.6219
   1424.62341     621.7659     501.2171   1424.62341     621.7659     501.2171
   1424.60815     622.3997     500.0800   1424.60815     622.3997     500.0800
   1424.59290     621.6050     501.0498   1424.59290     621.6050     501.0498
   1424.57764     622.8796     501.3518   1424.57764     622.8796     501.3518
   1424.56238     622.2974     502.0516   1424.56238     622.2974     502.0516
   1424.54712     621.4023     502.3309   1424.54712     621.4023     502.3309
   1424.53186     622.3854     502.3369   1424.53186     622.3854     502.3369
   1424.51660     622.2067     503.2702   1424.51660     622.2067     503.2702
   1424.50134     621.7654     504.0518   1424.50134     621.7654     504.0518
   1424.48608     622.6060     503.9991   1424.48608     622.6060     503.9991
   1424.47083     621.3641     505.2299   1424.47083     621.3641     505.2299
   1424.45557     621.5101     505.1341   1424.45557     621.5101     505.1341
   1424.44031     622.2168     504.8554   1424.44031     622.2168     504.8554
   1424.42505     622.0612     505.8229   1424.42505     622.0612     505.8229
   1424.40979     622.6617     506.6116   1424.40979     622.6617     506.6116
   1424.39453     621.1110     506.6668   1424.39453     621.1110     506.6668
   1424.37927     622.1202     507.0091   1424.37927     622.1202     507.0091
   1424.36401     621.4913     508.0721   1424.36401     621.4913     508.0721
   1424.34875     621.5007     508.0070   1424.34875     621.5007     508.0070
   1424.33350     619.6617     508.7246   1424.33350     619.6617     508.7246
   1424.31824     621.9662     509.2769   1424.31824     621.9662     509.2769
   1424.30298     620.6775     509.6955   1424.30298     620.6775     509.6955
   1424.28772     620.4673     510.1407   1424.28772     620.4673     510.1407
   1424.27246     620.7038     510.0484   1424.27246     620.7038     510.0484
   1424.25720     619.6953     510.2403   1424.25720     619.6953     510.2403
   1424.24194     620.2062     510.5334   1424.24194     620.2062     510.5334
   1424.22668     619.3574     511.5769   1424.22668     619.3574     511.5769
   1424.21143     619.6740     510.8158   1424.21143     619.6740     510.8158
   1424.19617     620.1128     512.8601   1424.19617     620.1128     512.8601
   1424.18091     619.2910     512.2220   1424.18091     619.2910     512.2220
   1424.16565     618.8528     512.7678   1424.16565     618.8528     512.7678
   1424.15039     618.6409     512.4470   1424.15039     618.6409     512.4470
   1424.13513     618.7766     512.6754   1424.13513     618.7766     512.6754
   1424.11987     618.6158     513.1426   1424.11987     618.6158     513.1426
   1424.10461     618.5485     514.1171   1424.10461     618.5485     514.1171
   1424.08936     617.8456     514.0427   1424.08936     617.8456     514.0427
   1424.07410     618.8514     514.0841   1424.07410     618.8514     514.0841
   1424.05884     618.0590     514.0502   1424.05884     618.0590     514.0502
   1424.04358     617.7983     515.5791   1424.04358     617.7983     515.5791
   1424.02832     617.4111     515.3580   1424.02832     617.4111     515.3580
   1424.01306     616.7097     516.2324   1424.01306     616.7097     516.2324
   1423.99780     616.9459     515.6371   1423.99780     616.9459     515.6371
   1423.98254     617.1840     516.4238   1423.98254     617.1840     516.4238
   1423.96729     615.8005     515.9114   1423.96729     615.8005     515.9114
   1423.95203     616.9252     516.2144   1423.95203     616.9252     516.2144
   1423.93677     616.5202     516.7941   1423.93677     616.5202     516.7941
   1423.92151     615.5381     518.2285   1423.92151     615.5381     518.2285
   1423.90625     615.6594     517.6175   1423.90625     615.6594     517.6175
   1423.89099     614.9852     516.8818   1423.89099     614.9852     516.8818
   1423.87573     614.1839     516.9634   1423.87573     614.1839     516.9634
   1423.86047     615.4476     518.2593   1423.86047     615.4476     518.2593
   1423.84521     614.2475     518.2238   1423.84521     614.2475     518.2238
   1423.82996     613.8912     518.5466   1423.82996     613.8912     518.5466
   1423.81470     613.8282     518.9309   1423.81470     613.8282     518.9309
   1423.79944     614.0051     518.6605   1423.79944     614.0051     518.6605
   1423.78418     615.3829     519.6710   1423.78418     615.3829     519.6710
   1423.76892     613.5180     518.3741   1423.76892     613.5180     518.3741
   1423.75366     613.2054     519.7233   1423.75366     613.2054     519.7233
   1423.73840     613.6226     518.5030   1423.73840     613.6226     518.5030
   1423.72314     613.2223     519.4548   1423.72314     613.2223     519.4548
   1423.70789     613.9026     519.3384   1423.70789     613.9026     519.3384
   1423.69263     611.2447     520.1895   1423.69263     611.2447     520.1895
   1423.67737     612.7059     520.7128   1423.67737     612.7059     520.7128
   1423.66211     612.4597     520.0771   1423.66211     612.4597     520.0771
   1423.64685     611.7343     519.6714   1423.64685     611.7343     519.6714
   1423.63159     611.0807     520.0636   1423.63159     611.0807     520.0636
   1423.61633     611.0339     520.2595   1423.61633     611.0339     520.2595
   1423.60107     609.7136     520.4822   1423.60107     609.7136     520.4822
   1423.58582     611.0616     520.4205   1423.58582     611.0616     520.4205
   1423.57056     608.8398     520.2408   1423.57056     608.8398     520.2408
   1423.55530     611.0289     520.0565   1423.55530     611.0289     520.0565
   1423.54004     609.8591     520.2447   1423.54004     609.8591     520.2447
   1423.52478     608.8073     520.9014   1423.52478     608.8073     520.9014
   1423.50952     610.2281     520.2413   1423.50952     610.2281     520.2413
   1423.49426     609.0095     520.3096   1423.49426     609.0095     520.3096
   1423.47900     608.8959     520.1398   1423.47900     608.8959     520.1398
   1423.46375     608.8389     520.8566   1423.46375     608.8389     520.8566
   1423.44849     606.5377     521.0965   1423.44849     606.5377     521.0965
   1423.43323     607.4321     520.3160   1423.43323     607.4321     520.3160
   1423.41797     608.0296     519.8528   1423.41797     608.0296     519.8528
   1423.40271     607.3686     519.5665   1423.40271     607.3686     519.5665
   1423.38745     608.3811     519.9449   1423.38745     608.3811     519.9449
   1423.37219     607.7145     520.6456   1423.37219     607.7145     520.6456
   1423.35693     605.8677     519.9335   1423.35693     605.8677     519.9335
   1423.34167     607.0441     520.6434   1423.34167     607.0441     520.6434
   1423.32642     606.6295     519.5115   1423.32642     606.6295     519.5115
   1423.31116     606.7328     520.0668   1423.31116     606.7328     520.0668
   1423.29590     605.6315     519.8571   1423.29590     605.6315     519.8571
   1423.28064     604.8373     519.6082   1423.28064     604.8373     519.6082
   1423.26538     605.0493     519.3151   1423.26538     605.0493     519.3151
   1423.25012     605.7205     519.3754   1423.25012     605.7205     519.3754
   1423.23486     604.9277     519.8955   1423.23486     604.9277     519.8955
   1423.21960     606.1758     519.9152   1423.21960     606.1758     519.9152
   1423.20435     604.8729     518.9149   1423.20435     604.8729     518.9149
   1423.18909     604.6520     518.5285   1423.18909     604.6520     518.5285
   1423.17383     604.1561     518.7011   1423.17383     604.1561     518.7011
   1423.15857     603.6011     518.8062   1423.15857     603.6011     518.8062
   1423.14331     603.8163     517.8087   1423.14331     603.8163     517.8087
   1423.12805     603.2515     518.5259   1423.12805     603.2515     518.5259
   1423.11279     603.1013     517.5992   1423.11279     603.1013     517.5992
   1423.09753     603.1266     517.1942   1423.09753     603.1266     517.1942
   1423.08228     602.6860     517.0981   1423.08228     602.6860     517.0981
   1423.06702     603.3897     516.9318   1423.06702     603.3897     516.9318
   1423.05176     602.1406     516.7220   1423.05176     602.1406     516.7220
   1423.03650     603.3580     516.2863   1423.03650     603.3580     516.2863
   1423.02124     602.0796     515.9298   1423.02124     602.0796     515.9298
   1423.00598     601.5825     516.0773   1423.00598     601.5825     516.0773
   1422.99072     601.5914     515.2851   1422.99072     601.5914     515.2851
   1422.97546     600.6273     514.8635   1422.97546     600.6273     514.8635
   1422.96021     602.3461     514.3613   1422.96021     602.3461     514.3613
   1422.94495     600.2204     514.2579   1422.94495     600.2204     514.2579
   1422.92969     600.3684     513.6788   1422.92969     600.3684     513.6788
   1422.91443     600.7068     512.7405   1422.91443     600.7068     512.7405
   1422.89917     601.2489     513.4771   1422.89917     601.2489     513.4771
   1422.88391     599.8480     513.0180   1422.88391     599.8480     513.0180
   1422.86865     600.5283     512.1908   1422.86865     600.5283     512.1908
   1422.85339     600.2200     512.2211   1422.85339     600.2200     512.2211
   1422.83813     599.4386     512.7125   1422.83813     599.4386     512.7125
   1422.82288     599.4681     511.5392   1422.82288     599.4681     511.5392
   1422.80762     599.1520     511.3081   1422.80762     599.1520     511.3081
   1422.79236     597.7492     509.8329   1422.79236     597.7492     509.8329
   1422.77710     597.9852     509.6205   1422.77710     597.9852     509.6205
   1422.76184     597.5499     509.3954   1422.76184     597.5499     509.3954
   1422.74658     598.5960     509.0853   1422.74658     598.5960     509.0853
   1422.73132     597.9696     509.2059   1422.73132     597.9696     509.2059
   1422.71606     598.2207     508.9254   1422.71606     598.2207     508.9254
   1422.70081     598.2986     507.5178   1422.70081     598.2986     507.5178
   1422.68555     597.4611     506.5860   1422.68555     597.4611     506.5860
   1422.67029     596.9988     506.0121   1422.67029     596.9988     506.0121
   1422.65503     597.5337     506.0437   1422.65503     597.5337     506.0437
   1422.63977     596.9603     504.5846   1422.63977     596.9603     504.5846
   1422.62451     596.4633     505.3892   1422.62451     596.4633     505.3892
   1422.60925     596.6437     504.2254   1422.60925     596.6437     504.2254
   1422.59399     595.5643     503.3559   1422.59399     595.5643     503.3559
   1422.57874     595.4604     503.0240   1422.57874     595.4604     503.0240
   1422.56348     597.2717     502.1237   1422.56348     597.2717     502.1237
   1422.54822     595.5516     501.7924   1422.54822     595.5516     501.7924
   1422.53296     596.1160     501.0261   1422.53296     596.1160     501.0261
   1422.51770     595.2223     500.6712   1422.51770     595.2223     500.6712
   1422.50244     595.5156     500.0744   1422.50244     595.5156     500.0744
   1422.48718     594.7683     499.3305   1422.48718     594.7683     499.3305
   1422.47192     595.4589     498.7895   1422.47192     595.4589     498.7895
   1422.45667     595.5773     497.4877   1422.45667     595.5773     497.4877
   1422.44141     594.3478     496.9081   1422.44141     594.3478     496.9081
   1422.42615     594.1162     495.9442   1422.42615     594.1162     495.9442
   1422.41089     594.6758     495.7128   1422.41089     594.6758     495.7128
   1422.39563     594.0214     495.1544   1422.39563     594.0214     495.1544
   1422.38037     594.4471     494.5649   1422.38037     594.4471     494.5649
   1422.36511     593.6612     493.5862   1422.36511     593.6612     493.5862
   1422.34985     594.0471     492.8358   1422.34985     594.0471     492.8358
   1422.33459     592.9985     490.6329   1422.33459     592.9985     490.6329
   1422.31934     592.8452     491.4450   1422.31934     592.8452     491.4450
   1422.30408     593.3874     490.8597   1422.30408     593.3874     490.8597
   1422.28882     593.4856     490.4771   1422.28882     593.4856     490.4771
   1422.27356     592.6182     488.8486   1422.27356     592.6182     488.8486
   1422.25830     592.7521     487.9294   1422.25830     592.7521     487.9294
   1422.24304     593.1858     487.0504   1422.24304     593.1858     487.0504
   1422.22778     591.9786     486.8124   1422.22778     591.9786     486.8124
   1422.21252     591.6547     486.1384   1422.21252     591.6547     486.1384
   1422.19727     592.0942     484.7995   1422.19727     592.0942     484.7995
   1422.18201     591.5592     484.6051   1422.18201     591.5592     484.6051
   1422.16675     592.1953     483.0967   1422.16675     592.1953     483.0967
   1422.15149     590.4280     482.6818   1422.15149     590.4280     482.6818
   1422.13623     591.6676     481.5730   1422.13623     591.6676     481.5730
   1422.12097     590.4024     480.7249   1422.12097     590.4024     480.7249
   1422.10571     590.1807     479.8140   1422.10571     590.1807     479.8140
   1422.09045     590.4041     478.5139   1422.09045     590.4041     478.5139
   1422.07520     590.0444     478.6112   1422.07520     590.0444     478.6112
   1422.05994     590.0884     476.5418   1422.05994     590.0884     476.5418
   1422.04468     589.5406     475.8538   1422.04468     589.5406     475.8538
   1422.02942     589.8131     474.7552   1422.02942     589.8131     474.7552
   1422.01416     588.7948     474.8790   1422.01416     588.7948     474.8790
   1421.99890     588.6265     473.4045   1421.99890     588.6265     473.4045
   1421.98364     589.7499     472.4695   1421.98364     589.7499     472.4695
   1421.96838     588.6083     471.8192   1421.96838     588.6083     471.8192
   1421.95312     589.2870     470.7801   1421.95312     589.2870     470.7801
   1421.93787     588.5754     469.9197   1421.93787     588.5754     469.9197
   1421.92261     588.7239     468.7568   1421.92261     588.7239     468.7568
   1421.90735     588.5975     468.3344   1421.90735     588.5975     468.3344
   1421.89209     587.5702     467.1512   1421.89209     587.5702     467.1512
   1421.87683     587.7943     465.7932   1421.87683     587.7943     465.7932
   1421.86157     586.8379     464.4803   1421.86157     586.8379     464.4803
   1421.84631     587.2548     463.1967   1421.84631     587.2548     463.1967
   1421.83105     586.4545     463.3887   1421.83105     586.4545     463.3887
   1421.81580     587.3387     462.7908   1421.81580     587.3387     462.7908
   1421.80054     587.3381     460.9584   1421.80054     587.3381     460.9584
   1421.78528     586.4774     459.8953   1421.78528     586.4774     459.8953
   1421.77002     586.8801     459.4531   1421.77002     586.8801     459.4531
   1421.75476     585.5990     458.4001   1421.75476     585.5990     458.4001
   1421.73950     586.8813     456.5818   1421.73950     586.8813     456.5818
   1421.72424     585.5041     456.0915   1421.72424     585.5041     456.0915
   1421.70898     585.7626     455.2895   1421.70898     585.7626     455.2895
   1421.69373     585.9417     453.9820   1421.69373     585.9417     453.9820
   1421.67847     584.9922     453.0058   1421.67847     584.9922     453.0058
   1421.66321     585.7459     451.9567   1421.66321     585.7459     451.9567
   1421.64795     584.7665     450.5422   1421.64795     584.7665     450.5422
   1421.63269     585.4549     450.2340   1421.63269     585.4549     450.2340
   1421.61743     585.2656     448.6861   1421.61743     585.2656     448.6861
   1421.60217     583.8663     447.8748   1421.60217     583.8663     447.8748
   1421.58691     584.2835     447.1074   1421.58691     584.2835     447.1074
   1421.57166     583.1060     446.3407   1421.57166     583.1060     446.3407
   1421.55640     583.5316     444.2878   1421.55640     583.5316     444.2878
   1421.54114     583.0589     443.3438   1421.54114     583.0589     443.3438
   1421.52588     583.5315     442.7651   1421.52588     583.5315     442.7651
   1421.51062     583.9328     441.5983   1421.51062     583.9328     441.5983
   1421.49536     582.7220     440.5256   1421.49536     582.7220     440.5256
   1421.48010     583.2440     439.2953   1421.48010     583.2440     439.2953
   1421.46484     581.8266     438.7617   1421.46484     581.8266     438.7617
   1421.44958     582.4046     437.1474   1421.44958     582.4046     437.1474
   1421.43433     581.8453     436.7069   1421.43433     581.8453     436.7069
   1421.41907     582.1793     435.9809   1421.41907     582.1793     435.9809
   1421.40381     582.3551     434.6897   1421.40381     582.3551     434.6897
   1421.38855     581.3762     433.2670   1421.38855     581.3762     433.2670
   1421.37329     581.1602     432.2830   1421.37329     581.1602     432.2830
   1421.35803     580.8123     432.2668   1421.35803     580.8123     432.2668
   1421.34277     582.2296     431.0733   1421.34277     582.2296     431.0733
   1421.32751     583.1516     430.3047   1421.32751     583.1516     430.3047
   1421.31226     582.6190     429.5194   1421.31226     582.6190     429.5194
   1421.29700     583.7354     429.8959   1421.29700     583.7354     429.8959
   1421.28174     583.8542     429.0027   1421.28174     583.8542     429.0027
   1421.26648     585.2958     429.3052   1421.26648     585.2958     429.3052
   1421.25122     587.4195     429.9111   1421.25122     587.4195     429.9111
   1421.23596     588.6050     429.9830   1421.23596     588.6050     429.9830
   1421.22070     589.4337     429.9302   1421.22070     589.4337     429.9302
   1421.20544     590.7040     430.1193   1421.20544     590.7040     430.1193
   1421.19019     589.4872     429.3741   1421.19019     589.4872     429.3741
   1421.17493     589.2070     426.9118   1421.17493     589.2070     426.9118
   1421.15967     589.6993     425.8749   1421.15967     589.6993     425.8749
   1421.14441     589.1204     425.2456   1421.14441     589.1204     425.2456
   1421.12915     592.3677     425.8343   1421.12915     592.3677     425.8343
   1421.11389     598.5425     429.5875   1421.11389     598.5425     429.5875
   1421.09863     609.3188     437.4966   1421.09863     609.3188     437.4966
   1421.08337     622.6021     445.9398   1421.08337     622.6021     445.9398
   1421.06812     630.4052     451.0397   1421.06812     630.4052     451.0397
   1421.05286     633.5833     451.7854   1421.05286     633.5833     451.7854
   1421.03760     635.9836     450.3798   1421.03760     635.9836     450.3798
   1421.02234     643.1355     456.6976   1421.02234     643.1355     456.6976
   1421.00708     672.7637     475.5597   1421.00708     672.7637     475.5597
   1420.99182     742.7832     523.4366   1420.99182     742.7832     523.4366
   1420.97656     859.7977     602.1016   1420.97656     859.7977     602.1016
   1420.96130     945.0955     659.3398   1420.96130     945.0955     659.3398
   1420.94604     900.9772     626.5238   1420.94604     900.9772     626.5238
   1420.93079     829.9214     577.8027   1420.93079     829.9214     577.8027
   1420.91553     772.6058     537.4614   1420.91553     772.6058     537.4614
   1420.90027     755.9321     525.7842   1420.90027     755.9321     525.7842
   1420.88501     779.4750     539.6510   1420.88501     779.4750     539.6510
   1420.86975     821.7738     567.7058   1420.86975     821.7738     567.7058
   1420.85449     851.3475     587.4827   1420.85449     851.3475     587.4827
   1420.83923     894.5214     616.2493   1420.83923     894.5214     616.2493
   1420.82397     929.4865     638.9300   1420.82397     929.4865     638.9300
   1420.80872     939.2385     643.8651   1420.80872     939.2385     643.8651
   1420.79346    1030.1439     703.0665   1420.79346    1030.1439     703.0665
   1420.77820    1256.8936     852.9537   1420.77820    1256.8936     852.9537
   1420.76294    1530.4889    1035.8510   1420.76294    1530.4889    1035.8510
   1420.74768    1751.7677    1179.6764   1420.74768    1751.7677    1179.6764
   1420.73242    1866.5468    1253.9900   1420.73242    1866.5468    1253.9900
   1420.71716    1746.0109    1171.6403   1420.71716    1746.0109    1171.6403
   1420.70190    1461.8585     978.1793   1420.70190    1461.8585     978.1793
   1420.68665    1231.4368     824.0848   1420.68665    1231.4368     824.0848
   1420.67139    1089.0262     729.8465   1420.67139    1089.0262     729.8465
   1420.65613    1082.0028     724.0878   1420.65613    1082.0028     724.0878
   1420.64087    1125.8047     749.4096   1420.64087    1125.8047     749.4096
   1420.62561     985.3806     656.4426   1420.62561     985.3806     656.4426
   1420.61035     881.4653     586.2866   1420.61035     881.4653     586.2866
   1420.59509     900.7204     596.7438   1420.59509     900.7204     596.7438
   1420.57983     975.4825     645.4517   1420.57983     975.4825     645.4517
   1420.56458    1092.6473     721.9373   1420.56458    1092.6473     721.9373
   1420.54932    1247.5398     822.4401   1420.54932    1247.5398     822.4401
   1420.53406    1449.7499     954.2546   1420.53406    1449.7499     954.2546
   1420.51880    1564.1808    1023.3484   1420.51880    1564.1808    1023.3484
   1420.50354    1619.0511    1057.5693   1420.50354    1619.0511    1057.5693
   1420.48828    1464.6147     957.3174   1420.48828    1464.6147     957.3174
   1420.47302    1065.7163     695.5692   1420.47302    1065.7163     695.5692
   1420.45776     810.5858     531.3180   1420.45776     810.5858     531.3180
   1420.44250     685.1976     450.4666   1420.44250     685.1976     450.4666
   1420.42725     634.0598     415.4292   1420.42725     634.0598     415.4292
   1420.41199     609.5956     399.3206   1420.41199     609.5956     399.3206
   1420.39673     596.6317     389.8153   1420.39673     596.6317     389.8153
   1420.38147     587.0856     384.0153   1420.38147     587.0856     384.0153
   1420.36621     581.8130     380.1076   1420.36621     581.8130     380.1076
   1420.35095     578.2521     377.1582   1420.35095     578.2521     377.1582
   1420.33569     577.6364     375.6772   1420.33569     577.6364     375.6772
   1420.32043     576.4518     374.0042   1420.32043     576.4518     374.0042
   1420.30518     574.7900     373.0767   1420.30518     574.7900     373.0767
   1420.28992     575.2300     371.3894   1420.28992     575.2300     371.3894
   1420.27466     574.1012     370.3102   1420.27466     574.1012     370.3102
   1420.25940     574.8467     369.4952   1420.25940     574.8467     369.4952
   1420.24414     572.9693     368.6645   1420.24414     572.9693     368.6645
   1420.22888     573.3100     367.8807   1420.22888     573.3100     367.8807
   1420.21362     572.7131     367.0096   1420.21362     572.7131     367.0096
   1420.19836     571.5563     365.2103   1420.19836     571.5563     365.2103
   1420.18311     571.2550     364.4664   1420.18311     571.2550     364.4664
   1420.16785     569.9296     363.2970   1420.16785     569.9296     363.2970
   1420.15259     570.1951     362.8977   1420.15259     570.1951     362.8977
   1420.13733     568.5914     361.9694   1420.13733     568.5914     361.9694
   1420.12207     568.4089     361.4668   1420.12207     568.4089     361.4668
   1420.10681     567.9553     360.3963   1420.10681     567.9553     360.3963
   1420.09155     568.0829     359.1496   1420.09155     568.0829     359.1496
   1420.07629     567.6006     358.7613   1420.07629     567.6006     358.7613
   1420.06104     567.9170     358.5322   1420.06104     567.9170     358.5322
   1420.04578     567.3704     357.7356   1420.04578     567.3704     357.7356
   1420.03052     567.1085     357.1341   1420.03052     567.1085     357.1341
   1420.01526     567.0312     357.4241   1420.01526     567.0312     357.4241
   1420.00000     568.4924     358.1929   1420.00000     568.4924     358.1929
   1419.98474     569.9533     358.9617   1419.98474     569.9533     358.9617
   1419.96948     570.0436     356.2876   1419.96948     570.0436     356.2876
   1419.95422     567.3181     354.7471   1419.95422     567.3181     354.7471
   1419.93896     567.4727     353.6596   1419.93896     567.4727     353.6596
   1419.92371     567.1957     353.7182   1419.92371     567.1957     353.7182
   1419.90845     567.2690     353.5491   1419.90845     567.2690     353.5491
   1419.89319     568.0060     352.8732   1419.89319     568.0060     352.8732
   1419.87793     567.9636     352.5054   1419.87793     567.9636     352.5054
   1419.86267     567.7719     352.0461   1419.86267     567.7719     352.0461
   1419.84741     567.6294     351.5321   1419.84741     567.6294     351.5321
   1419.83215     567.5685     351.0003   1419.83215     567.5685     351.0003
   1419.81689     568.8635     351.0917   1419.81689     568.8635     351.0917
   1419.80164     567.4224     350.9848   1419.80164     567.4224     350.9848
   1419.78638     568.2554     350.3769   1419.78638     568.2554     350.3769
   1419.77112     568.2261     350.3208   1419.77112     568.2261     350.3208
   1419.75586     569.3022     349.9148   1419.75586     569.3022     349.9148
   1419.74060     569.3118     350.3179   1419.74060     569.3118     350.3179
   1419.72534     568.6534     349.2050   1419.72534     568.6534     349.2050
   1419.71008     569.4503     349.1263   1419.71008     569.4503     349.1263
   1419.69482     569.9943     348.8732   1419.69482     569.9943     348.8732
   1419.67957     569.6333     348.7691   1419.67957     569.6333     348.7691
   1419.66431     570.1273     347.5325   1419.66431     570.1273     347.5325
   1419.64905     569.8499     348.5188   1419.64905     569.8499     348.5188
   1419.63379     570.2469     347.7168   1419.63379     570.2469     347.7168
   1419.61853     570.7352     347.7456   1419.61853     570.7352     347.7456
   1419.60327     570.5841     347.9801   1419.60327     570.5841     347.9801
   1419.58801     572.2807     347.6033   1419.58801     572.2807     347.6033
   1419.57275     571.0242     347.2082   1419.57275     571.0242     347.2082
   1419.55750     570.9944     347.2498   1419.55750     570.9944     347.2498
   1419.54224     571.1549     346.7859   1419.54224     571.1549     346.7859
   1419.52698     572.5332     346.5740   1419.52698     572.5332     346.5740
   1419.51172     572.4026     346.6736   1419.51172     572.4026     346.6736
   1419.49646     572.8696     346.6590   1419.49646     572.8696     346.6590
   1419.48120     572.0980     346.6601   1419.48120     572.0980     346.6601
   1419.46594     572.5091     346.4424   1419.46594     572.5091     346.4424
   1419.45068     573.1027     346.1151   1419.45068     573.1027     346.1151
   1419.43542     573.0650     346.3130   1419.43542     573.0650     346.3130
   1419.42017     573.9536     346.6041   1419.42017     573.9536     346.6041
   1419.40491     573.8017     346.5454   1419.40491     573.8017     346.5454
   1419.38965     574.7266     346.3945   1419.38965     574.7266     346.3945
   1419.37439     574.8915     346.2993   1419.37439     574.8915     346.2993
   1419.35913     575.3337     346.7667   1419.35913     575.3337     346.7667
   1419.34387     575.4754     346.5665   1419.34387     575.4754     346.5665
   1419.32861     577.1064     346.4752   1419.32861     577.1064     346.4752
   1419.31335     575.9149     346.1805   1419.31335     575.9149     346.1805
   1419.29810     577.2739     346.0998   1419.29810     577.2739     346.0998
   1419.28284     577.1099     346.7738   1419.28284     577.1099     346.7738
   1419.26758     578.3676     346.9391   1419.26758     578.3676     346.9391
   1419.25232     578.2349     347.3439   1419.25232     578.2349     347.3439
   1419.23706     577.0452     347.0876   1419.23706     577.0452     347.0876
   1419.22180     579.0369     347.2619   1419.22180     579.0369     347.2619
   1419.20654     579.4385     346.8762   1419.20654     579.4385     346.8762
   1419.19128     578.5778     347.5883   1419.19128     578.5778     347.5883
   1419.17603     579.5718     346.9663   1419.17603     579.5718     346.9663
   1419.16077     579.9971     347.8850   1419.16077     579.9971     347.8850
   1419.14551     580.1263     348.0402   1419.14551     580.1263     348.0402
   1419.13025     580.3228     348.0889   1419.13025     580.3228     348.0889
   1419.11499     580.7911     348.6068   1419.11499     580.7911     348.6068
   1419.09973     581.7167     348.6417   1419.09973     581.7167     348.6417
   1419.08447     580.9199     348.3448   1419.08447     580.9199     348.3448
   1419.06921     582.9733     348.3156   1419.06921     582.9733     348.3156
   1419.05396     582.2825     349.1198   1419.05396     582.2825     349.1198
   1419.03870     584.2430     349.2314   1419.03870     584.2430     349.2314
   1419.02344     583.5759     349.3079   1419.02344     583.5759     349.3079
   1419.00818     585.4240     349.6807   1419.00818     585.4240     349.6807
   1418.99292     584.7271     349.5640   1418.99292     584.7271     349.5640
   1418.97766     583.6734     350.2921   1418.97766     583.6734     350.2921
   1418.96240     585.8743     350.9457   1418.96240     585.8743     350.9457
   1418.94714     586.8354     350.2606   1418.94714     586.8354     350.2606
   1418.93188     586.5549     351.2920   1418.93188     586.5549     351.2920
   1418.91663     586.6542     351.3227   1418.91663     586.6542     351.3227
   1418.90137     587.0935     352.4296   1418.90137     587.0935     352.4296
   1418.88611     588.1205     351.9001   1418.88611     588.1205     351.9001
   1418.87085     588.0754     353.3602   1418.87085     588.0754     353.3602
   1418.85559     589.7936     353.9941   1418.85559     589.7936     353.9941
   1418.84033     589.6151     353.0744   1418.84033     589.6151     353.0744
   1418.82507     590.8022     353.9022   1418.82507     590.8022     353.9022
   1418.80981     590.6057     354.2910   1418.80981     590.6057     354.2910
   1418.79456     591.4083     354.7818   1418.79456     591.4083     354.7818
   1418.77930     591.1307     355.1986   1418.77930     591.1307     355.1986
   1418.76404     591.7096     355.0792   1418.76404     591.7096     355.0792
   1418.74878     592.9698     356.2746   1418.74878     592.9698     356.2746
   1418.73352     593.5555     357.2294   1418.73352     593.5555     357.2294
   1418.71826     593.4483     356.8648   1418.71826     593.4483     356.8648
   1418.70300     593.6155     357.0461   1418.70300     593.6155     357.0461
   1418.68774     596.0015     357.7465   1418.68774     596.0015     357.7465
   1418.67249     596.3339     357.6678   1418.67249     596.3339     357.6678
   1418.65723     596.5325     358.8821   1418.65723     596.5325     358.8821
   1418.64197     597.5510     359.5185   1418.64197     597.5510     359.5185
   1418.62671     597.4734     359.9935   1418.62671     597.4734     359.9935
   1418.61145     597.8459     360.0541   1418.61145     597.8459     360.0541
   1418.59619     598.9343     361.1590   1418.59619     598.9343     361.1590
   1418.58093     599.5445     361.7047   1418.58093     599.5445     361.7047
   1418.56567     600.0954     362.1893   1418.56567     600.0954     362.1893
   1418.55042     601.6265     362.7120   1418.55042     601.6265     362.7120
   1418.53516     601.6219     363.7540   1418.53516     601.6219     363.7540
   1418.51990     602.3130     363.7103   1418.51990     602.3130     363.7103
   1418.50464     601.8340     364.7948   1418.50464     601.8340     364.7948
   1418.48938     603.9766     365.0507   1418.48938     603.9766     365.0507
   1418.47412     603.9061     365.7548   1418.47412     603.9061     365.7548
   1418.45886     604.5775     366.3557   1418.45886     604.5775     366.3557
   1418.44360     605.2663     367.0441   1418.44360     605.2663     367.0441
   1418.42834     605.4191     367.5835   1418.42834     605.4191     367.5835
   1418.41309     605.9043     368.5892   1418.41309     605.9043     368.5892
   1418.39783     607.4196     368.7264   1418.39783     607.4196     368.7264
   1418.38257     608.3622     369.4786   1418.38257     608.3622     369.4786
   1418.36731     609.3402     369.5471   1418.36731     609.3402     369.5471
   1418.35205     609.4919     370.9138   1418.35205     609.4919     370.9138
   1418.33679     610.6651     371.7569   1418.33679     610.6651     371.7569
   1418.32153     610.7903     372.4503   1418.32153     610.7903     372.4503
   1418.30627     611.4207     372.6907   1418.30627     611.4207     372.6907
   1418.29102     611.7817     373.1288   1418.29102     611.7817     373.1288
   1418.27576     613.1152     374.5236   1418.27576     613.1152     374.5236
   1418.26050     612.8139     375.2281   1418.26050     612.8139     375.2281
   1418.24524     614.0040     375.9529   1418.24524     614.0040     375.9529
   1418.22998     614.4122     376.8034   1418.22998     614.4122     376.8034
   1418.21472     615.5870     376.7818   1418.21472     615.5870     376.7818
   1418.19946     615.4904     378.0368   1418.19946     615.4904     378.0368
   1418.18420     616.6917     378.6308   1418.18420     616.6917     378.6308
   1418.16895     617.1076     379.9588   1418.16895     617.1076     379.9588
   1418.15369     617.5947     380.8221   1418.15369     617.5947     380.8221
   1418.13843     619.2337     381.6780   1418.13843     619.2337     381.6780
   1418.12317     620.2924     381.4394   1418.12317     620.2924     381.4394
   1418.10791     619.7235     383.3269   1418.10791     619.7235     383.3269
   1418.09265     621.2052     382.9785   1418.09265     621.2052     382.9785
   1418.07739     623.2606     384.4923   1418.07739     623.2606     384.4923
   1418.06213     623.7310     385.0422   1418.06213     623.7310     385.0422
   1418.04688     623.0682     385.6123   1418.04688     623.0682     385.6123
   1418.03162     624.4197     386.9102   1418.03162     624.4197     386.9102
   1418.01636     625.1802     388.0281   1418.01636     625.1802     388.0281
   1418.00110     625.3489     388.8546   1418.00110     625.3489     388.8546
   1417.98584     626.9420     389.1363   1417.98584     626.9420     389.1363
   1417.97058     627.1948     389.5503   1417.97058     627.1948     389.5503
   1417.95532     628.2771     390.6118   1417.95532     628.2771     390.6118
   1417.94006     628.6879     391.5554   1417.94006     628.6879     391.5554
   1417.92480     629.0438     392.2640   1417.92480     629.0438     392.2640
   1417.90955     630.4642     393.6617   1417.90955     630.4642     393.6617
   1417.89429     631.9011     394.4860   1417.89429     631.9011     394.4860
   1417.87903     632.3259     395.3952   1417.87903     632.3259     395.3952
   1417.86377     633.1514     395.9810   1417.86377     633.1514     395.9810
   1417.84851     633.0237     396.7980   1417.84851     633.0237     396.7980
   1417.83325     634.2793     397.6187   1417.83325     634.2793     397.6187
   1417.81799     634.5803     398.8345   1417.81799     634.5803     398.8345
   1417.80273     636.2048     399.5113   1417.80273     636.2048     399.5113
   1417.78748     636.1328     399.7415   1417.78748     636.1328     399.7415
   1417.77222     636.7429     401.2592   1417.77222     636.7429     401.2592
   1417.75696     638.7343     402.6866   1417.75696     638.7343     402.6866
   1417.74170     638.2072     403.0500   1417.74170     638.2072     403.0500
   1417.72644     639.2313     404.0288   1417.72644     639.2313     404.0288
   1417.71118     641.1237     404.8618   1417.71118     641.1237     404.8618
   1417.69592     642.0144     406.0876   1417.69592     642.0144     406.0876
   1417.68066     641.5114     406.3573   1417.68066     641.5114     406.3573
   1417.66541     643.5445     407.7739   1417.66541     643.5445     407.7739
   1417.65015     643.7725     408.5315   1417.65015     643.7725     408.5315
   1417.63489     644.9382     409.1477   1417.63489     644.9382     409.1477
   1417.61963     644.8807     409.9384   1417.61963     644.8807     409.9384
   1417.60437     645.9303     411.0711   1417.60437     645.9303     411.0711
   1417.58911     646.2840     411.7521   1417.58911     646.2840     411.7521
   1417.57385     647.7845     412.7938   1417.57385     647.7845     412.7938
   1417.55859     648.2300     413.6663   1417.55859     648.2300     413.6663
   1417.54333     648.8458     414.3494   1417.54333     648.8458     414.3494
   1417.52808     650.1448     415.4627   1417.52808     650.1448     415.4627
   1417.51282     649.9194     416.3732   1417.51282     649.9194     416.3732
   1417.49756     652.0753     417.5493   1417.49756     652.0753     417.5493
   1417.48230     652.4304     418.7285   1417.48230     652.4304     418.7285
   1417.46704     652.2895     419.0617   1417.46704     652.2895     419.0617
   1417.45178     654.0461     419.9635   1417.45178     654.0461     419.9635
   1417.43652     654.2155     421.3534   1417.43652     654.2155     421.3534
   1417.42126     654.9725     422.0138   1417.42126     654.9725     422.0138
   1417.40601     656.2196     422.3607   1417.40601     656.2196     422.3607
   1417.39075     656.4066     424.0152   1417.39075     656.4066     424.0152
   1417.37549     657.2663     424.4347   1417.37549     657.2663     424.4347
   1417.36023     658.5115     425.6360   1417.36023     658.5115     425.6360
   1417.34497     658.2097     426.2412   1417.34497     658.2097     426.2412
   1417.32971     658.2007     426.5939   1417.32971     658.2007     426.5939
   1417.31445     659.9506     427.2445   1417.31445     659.9506     427.2445
   1417.29919     660.6310     428.3785   1417.29919     660.6310     428.3785
   1417.28394     661.2365     429.2824   1417.28394     661.2365     429.2824
   1417.26868     661.2676     430.3124   1417.26868     661.2676     430.3124
   1417.25342     661.7062     430.8989   1417.25342     661.7062     430.8989
   1417.23816     662.5800     431.9009   1417.23816     662.5800     431.9009
   1417.22290     664.3919     432.2711   1417.22290     664.3919     432.2711
   1417.20764     663.8257     433.1824   1417.20764     663.8257     433.1824
   1417.19238     665.4326     433.9232   1417.19238     665.4326     433.9232
   1417.17712     664.6973     434.9475   1417.17712     664.6973     434.9475
   1417.16187     666.5486     435.4527   1417.16187     666.5486     435.4527
   1417.14661     666.8301     436.4937   1417.14661     666.8301     436.4937
   1417.13135     667.0709     436.7980   1417.13135     667.0709     436.7980
   1417.11609     667.6589     438.1073   1417.11609     667.6589     438.1073
   1417.10083     668.1136     437.8555   1417.10083     668.1136     437.8555
   1417.08557     668.1401     438.9205   1417.08557     668.1401     438.9205
   1417.07031     669.5234     440.5486   1417.07031     669.5234     440.5486
   1417.05505     670.9468     440.4550   1417.05505     670.9468     440.4550
   1417.03979     670.5138     441.4141   1417.03979     670.5138     441.4141
   1417.02454     670.1490     441.8787   1417.02454     670.1490     441.8787
   1417.00928     671.5580     443.1014   1417.00928     671.5580     443.1014
   1416.99402     673.1407     443.1867   1416.99402     673.1407     443.1867
   1416.97876     672.0754     444.5817   1416.97876     672.0754     444.5817
   1416.96350     673.8490     444.5749   1416.96350     673.8490     444.5749
   1416.94824     672.8756     445.1827   1416.94824     672.8756     445.1827
   1416.93298     673.2374     446.1439   1416.93298     673.2374     446.1439
   1416.91772     674.3994     446.5844   1416.91772     674.3994     446.5844
   1416.90247     674.1324     446.9422   1416.90247     674.1324     446.9422
   1416.88721     674.3674     446.8780   1416.88721     674.3674     446.8780
   1416.87195     675.8487     447.4854   1416.87195     675.8487     447.4854
   1416.85669     675.8751     447.6011   1416.85669     675.8751     447.6011
   1416.84143     676.4431     448.2479   1416.84143     676.4431     448.2479
   1416.82617     676.0292     449.5354   1416.82617     676.0292     449.5354
   1416.81091     676.4261     449.1059   1416.81091     676.4261     449.1059
   1416.79565     677.7392     449.9341   1416.79565     677.7392     449.9341
   1416.78040     676.2938     450.8923   1416.78040     676.2938     450.8923
   1416.76514     677.1086     450.7537   1416.76514     677.1086     450.7537
   1416.74988     678.2612     451.1620   1416.74988     678.2612     451.1620
   1416.73462     678.8432     450.6301   1416.73462     678.8432     450.6301
   1416.71936     677.3367     451.5022   1416.71936     677.3367     451.5022
   1416.70410     678.1851     451.7604   1416.70410     678.1851     451.7604
   1416.68884     679.6219     451.8668   1416.68884     679.6219     451.8668
   1416.67358     679.2401     452.2794   1416.67358     679.2401     452.2794
   1416.65833     679.2242     452.1367   1416.65833     679.2242     452.1367
   1416.64307     679.4825     452.7030   1416.64307     679.4825     452.7030
   1416.62781     679.2839     453.5565   1416.62781     679.2839     453.5565
   1416.61255     679.6147     452.2395   1416.61255     679.6147     452.2395
   1416.59729     679.6298     453.3604   1416.59729     679.6298     453.3604
   1416.58203     679.9456     453.3626   1416.58203     679.9456     453.3626
   1416.56677     681.3254     453.7649   1416.56677     681.3254     453.7649
   1416.55151     679.4449     452.9347   1416.55151     679.4449     452.9347
   1416.53625     680.1012     452.7212   1416.53625     680.1012     452.7212
   1416.52100     679.6440     453.4812   1416.52100     679.6440     453.4812
   1416.50574     680.6788     453.5074   1416.50574     680.6788     453.5074
   1416.49048     680.1462     452.6303   1416.49048     680.1462     452.6303
   1416.47522     678.6702     452.8718   1416.47522     678.6702     452.8718
   1416.45996     679.8072     453.7489   1416.45996     679.8072     453.7489
   1416.44470     680.2325     453.4148   1416.44470     680.2325     453.4148
   1416.42944     680.5621     453.1090   1416.42944     680.5621     453.1090
   1416.41418     680.9648     452.4906   1416.41418     680.9648     452.4906
   1416.39893     679.4986     452.6392   1416.39893     679.4986     452.6392
   1416.38367     679.9061     452.7087   1416.38367     679.9061     452.7087
   1416.36841     680.7784     452.5135   1416.36841     680.7784     452.5135
   1416.35315     678.9147     452.4759   1416.35315     678.9147     452.4759
   1416.33789     678.2986     451.5478   1416.33789     678.2986     451.5478
   1416.32263     679.7213     451.6784   1416.32263     679.7213     451.6784
   1416.30737     679.3622     451.4115   1416.30737     679.3622     451.4115
   1416.29211     679.2518     451.2541   1416.29211     679.2518     451.2541
   1416.27686     677.8995     450.7451   1416.27686     677.8995     450.7451
   1416.26160     678.7581     450.8639   1416.26160     678.7581     450.8639
   1416.24634     678.2894     450.2306   1416.24634     678.2894     450.2306
   1416.23108     677.4841     450.6125   1416.23108     677.4841     450.6125
   1416.21582     678.0797     449.2648   1416.21582     678.0797     449.2648
   1416.20056     677.9652     448.9747   1416.20056     677.9652     448.9747
   1416.18530     677.6298     449.2823   1416.18530     677.6298     449.2823
   1416.17004     677.5246     448.5674   1416.17004     677.5246     448.5674
   1416.15479     676.5308     447.9691   1416.15479     676.5308     447.9691
   1416.13953     675.8729     447.8156   1416.13953     675.8729     447.8156
   1416.12427     675.0838     447.9185   1416.12427     675.0838     447.9185
   1416.10901     676.3277     447.7746   1416.10901     676.3277     447.7746
   1416.09375     675.4728     446.6408   1416.09375     675.4728     446.6408
   1416.07849     675.0413     446.9223   1416.07849     675.0413     446.9223
   1416.06323     673.1504     445.9132   1416.06323     673.1504     445.9132
   1416.04797     674.0257     445.0215   1416.04797     674.0257     445.0215
   1416.03271     674.2422     445.6172   1416.03271     674.2422     445.6172
   1416.01746     673.0327     444.9633   1416.01746     673.0327     444.9633
   1416.00220     672.7250     444.1768   1416.00220     672.7250     444.1768
   1415.98694     672.8678     443.8356   1415.98694     672.8678     443.8356
   1415.97168     672.3621     443.2633   1415.97168     672.3621     443.2633
   1415.95642     671.5504     442.4138   1415.95642     671.5504     442.4138
   1415.94116     671.0515     442.5279   1415.94116     671.0515     442.5279
   1415.92590     671.1548     441.5059   1415.92590     671.1548     441.5059
   1415.91064     670.2748     441.2786   1415.91064     670.2748     441.2786
   1415.89539     669.4955     440.5737   1415.89539     669.4955     440.5737
   1415.88013     669.0876     439.8422   1415.88013     669.0876     439.8422
   1415.86487     668.1560     440.4261   1415.86487     668.1560     440.4261
   1415.84961     668.2397     439.4362   1415.84961     668.2397     439.4362
   1415.83435     667.8497     438.8277   1415.83435     667.8497     438.8277
   1415.81909     666.5132     438.2458   1415.81909     666.5132     438.2458
   1415.80383     666.0502     437.2151   1415.80383     666.0502     437.2151
   1415.78857     665.6431     437.0388   1415.78857     665.6431     437.0388
   1415.77332     665.4502     436.5937   1415.77332     665.4502     436.5937
   1415.75806     664.7141     436.6645   1415.75806     664.7141     436.6645
   1415.74280     663.1838     435.2026   1415.74280     663.1838     435.2026
   1415.72754     664.2871     434.5296   1415.72754     664.2871     434.5296
   1415.71228     664.3253     434.5628   1415.71228     664.3253     434.5628
   1415.69702     662.7379     433.7137   1415.69702     662.7379     433.7137
   1415.68176     662.0396     433.5985   1415.68176     662.0396     433.5985
   1415.66650     661.1548     432.5132   1415.66650     661.1548     432.5132
   1415.65125     661.2728     431.8885   1415.65125     661.2728     431.8885
   1415.63599     659.7345     430.9190   1415.63599     659.7345     430.9190
   1415.62073     659.1258     430.8186   1415.62073     659.1258     430.8186
   1415.60547     658.0190     430.7044   1415.60547     658.0190     430.7044
   1415.59021     657.7278     428.9199   1415.59021     657.7278     428.9199
   1415.57495     656.4252     429.2559   1415.57495     656.4252     429.2559
   1415.55969     655.8635     428.3784   1415.55969     655.8635     428.3784
   1415.54443     655.5037     427.6060   1415.54443     655.5037     427.6060
   1415.52917     654.1169     427.7635   1415.52917     654.1169     427.7635
   1415.51392     654.7216     426.0439   1415.51392     654.7216     426.0439
   1415.49866     653.5779     425.7254   1415.49866     653.5779     425.7254
   1415.48340     652.7610     424.8436   1415.48340     652.7610     424.8436
   1415.46814     651.2732     424.6068   1415.46814     651.2732     424.6068
   1415.45288     651.0280     424.3624   1415.45288     651.0280     424.3624
   1415.43762     649.3712     422.6881   1415.43762     649.3712     422.6881
   1415.42236     649.2349     422.3034   1415.42236     649.2349     422.3034
   1415.40710     648.2233     421.5626   1415.40710     648.2233     421.5626
   1415.39185     647.5543     421.2441   1415.39185     647.5543     421.2441
   1415.37659     646.8678     419.9239   1415.37659     646.8678     419.9239
   1415.36133     645.7686     419.8474   1415.36133     645.7686     419.8474
   1415.34607     644.3789     419.1068   1415.34607     644.3789     419.1068
   1415.33081     642.4065     418.3060   1415.33081     642.4065     418.3060
   1415.31555     641.9730     417.3762   1415.31555     641.9730     417.3762
   1415.30029     641.5693     417.7227   1415.30029     641.5693     417.7227
   1415.28503     640.7758     416.6572   1415.28503     640.7758     416.6572
   1415.26978     639.2431     415.3990   1415.26978     639.2431     415.3990
   1415.25452     638.6492     414.6914   1415.25452     638.6492     414.6914
   1415.23926     637.2909     414.3850   1415.23926     637.2909     414.3850
   1415.22400     635.9022     413.1562   1415.22400     635.9022     413.1562
   1415.20874     635.4808     412.5568   1415.20874     635.4808     412.5568
   1415.19348     634.0679     411.6692   1415.19348     634.0679     411.6692
   1415.17822     634.7056     410.9537   1415.17822     634.7056     410.9537
   1415.16296     632.7650     409.8077   1415.16296     632.7650     409.8077
   1415.14771     630.8477     409.1126   1415.14771     630.8477     409.1126
   1415.13245     630.6746     408.7610   1415.13245     630.6746     408.7610
   1415.11719     628.3712     407.3100   1415.11719     628.3712     407.3100
   1415.10193     627.1614     407.0708   1415.10193     627.1614     407.0708
   1415.08667     626.8904     406.3409   1415.08667     626.8904     406.3409
   1415.07141     624.9193     405.1051   1415.07141     624.9193     405.1051
   1415.05615     623.5413     404.5143   1415.05615     623.5413     404.5143
   1415.04089     622.5745     403.5329   1415.04089     622.5745     403.5329
   1415.02563     621.5603     402.9851   1415.02563     621.5603     402.9851
   1415.01038     619.4230     403.4134   1415.01038     619.4230     403.4134
   1414.99512     619.0887     401.6036   1414.99512     619.0887     401.6036
   1414.97986     617.6931     400.5117   1414.97986     617.6931     400.5117
   1414.96460     615.6848     399.7081   1414.96460     615.6848     399.7081
   1414.94934     614.4647     399.2000   1414.94934     614.4647     399.2000
   1414.93408     612.8937     398.1944   1414.93408     612.8937     398.1944
   1414.91882     611.3315     397.3062   1414.91882     611.3315     397.3062
   1414.90356     610.4918     396.5167   1414.90356     610.4918     396.5167
   1414.88831     609.0577     395.4630   1414.88831     609.0577     395.4630
   1414.87305     607.7419     394.4712   1414.87305     607.7419     394.4712
   1414.85779     606.5477     393.6526   1414.85779     606.5477     393.6526
   1414.84253     604.7954     392.8443   1414.84253     604.7954     392.8443
   1414.82727     603.4041     391.3607   1414.82727     603.4041     391.3607
   1414.81201     600.9655     390.8029   1414.81201     600.9655     390.8029
   1414.79675     600.9082     389.7355   1414.79675     600.9082     389.7355
   1414.78149     599.1102     389.1988   1414.78149     599.1102     389.1988
   1414.76624     596.9424     387.6018   1414.76624     596.9424     387.6018
   1414.75098     594.7217     386.8827   1414.75098     594.7217     386.8827
   1414.73572     593.8422     385.7250   1414.73572     593.8422     385.7250
   1414.72046     592.8694     384.7868   1414.72046     592.8694     384.7868
   1414.70520     590.4783     383.6722   1414.70520     590.4783     383.6722
   1414.68994     588.7554     383.4352   1414.68994     588.7554     383.4352
   1414.67468     586.2559     382.0989   1414.67468     586.2559     382.0989
   1414.65942     584.3044     380.8432   1414.65942     584.3044     380.8432
   1414.64417     583.0399     379.8323   1414.64417     583.0399     379.8323
   1414.62891     581.4788     378.6181   1414.62891     581.4788     378.6181
   1414.61365     579.8992     377.5055   1414.61365     579.8992     377.5055
   1414.59839     577.8272     376.4521   1414.59839     577.8272     376.4521
   1414.58313     576.3198     375.2877   1414.58313     576.3198     375.2877
   1414.56787     574.2365     374.5945   1414.56787     574.2365     374.5945
   1414.55261     573.4681     373.4946   1414.55261     573.4681     373.4946
   1414.53735     571.4861     372.4765   1414.53735     571.4861     372.4765
   1414.52209     569.0754     370.9587   1414.52209     569.0754     370.9587
   1414.50684     566.3989     370.2111   1414.50684     566.3989     370.2111
   1414.49158     565.1594     368.8904   1414.49158     565.1594     368.8904
   1414.47632     562.6599     368.0258   1414.47632     562.6599     368.0258
   1414.46106     561.0635     367.1990   1414.46106     561.0635     367.1990
   1414.44580     558.6433     365.4454   1414.44580     558.6433     365.4454
   1414.43054     557.1118     363.6490   1414.43054     557.1118     363.6490
   1414.41528     554.8895     362.9900   1414.41528     554.8895     362.9900
   1414.40002     553.9879     362.5933   1414.40002     553.9879     362.5933
   1414.38477     550.4609     361.6812   1414.38477     550.4609     361.6812
   1414.36951     548.6592     359.4064   1414.36951     548.6592     359.4064
   1414.35425     547.2379     358.6718   1414.35425     547.2379     358.6718
   1414.33899     544.8136     357.1668   1414.33899     544.8136     357.1668
   1414.32373     542.7100     356.0739   1414.32373     542.7100     356.0739
   1414.30847     541.4445     355.3593   1414.30847     541.4445     355.3593
   1414.29321     539.0203     353.4185   1414.29321     539.0203     353.4185
   1414.27795     536.6838     352.5515   1414.27795     536.6838     352.5515
   1414.26270     534.4907     351.6694   1414.26270     534.4907     351.6694
   1414.24744     531.7237     350.6861   1414.24744     531.7237     350.6861
   1414.23218     529.8090     348.8847   1414.23218     529.8090     348.8847
   1414.21692     527.7144     347.2971   1414.21692     527.7144     347.2971
   1414.20166     525.1744     346.0332   1414.20166     525.1744     346.0332
   1414.18640     523.3348     345.1391   1414.18640     523.3348     345.1391
   1414.17114     521.9464     343.9986   1414.17114     521.9464     343.9986
   1414.15588     518.7156     342.7834   1414.15588     518.7156     342.7834
   1414.14062     516.4581     341.6908   1414.14062     516.4581     341.6908
   1414.12537     514.6488     339.8594   1414.12537     514.6488     339.8594
   1414.11011     511.1312     339.3005   1414.11011     511.1312     339.3005
   1414.09485     509.8631     337.3287   1414.09485     509.8631     337.3287
   1414.07959     507.1801     336.2582   1414.07959     507.1801     336.2582
   1414.06433     504.9240     334.5352   1414.06433     504.9240     334.5352
   1414.04907     502.0204     333.5981   1414.04907     502.0204     333.5981
   1414.03381     500.4898     332.1682   1414.03381     500.4898     332.1682
   1414.01855     499.1196     331.0795   1414.01855     499.1196     331.0795
   1414.00330     518.8252     337.5629   1414.00330     518.8252     337.5629
   1413.98804     495.3195     328.4940   1413.98804     495.3195     328.4940
   1413.97278     491.3186     327.0600   1413.97278     491.3186     327.0600
   1413.95752     488.0680     325.5152   1413.95752     488.0680     325.5152
   1413.94226     486.0441     324.3922   1413.94226     486.0441     324.3922
   1413.92700     482.7502     322.4282   1413.92700     482.7502     322.4282
   1413.91174     481.2715     321.2733   1413.91174     481.2715     321.2733
   1413.89648     478.1390     320.0112   1413.89648     478.1390     320.0112
   1413.88123     475.9075     319.3347   1413.88123     475.9075     319.3347
   1413.86597     473.2857     317.7463   1413.86597     473.2857     317.7463
   1413.85071     471.8546     316.0209   1413.85071     471.8546     316.0209
   1413.83545     467.9299     315.0286   1413.83545     467.9299     315.0286
   1413.82019     466.6869     313.1832   1413.82019     466.6869     313.1832
   1413.80493     463.8750     311.8261   1413.80493     463.8750     311.8261
   1413.78967     461.6841     310.6752   1413.78967     461.6841     310.6752
   1413.77441     459.1390     309.3368   1413.77441     459.1390     309.3368
   1413.75916     456.1971     307.4445   1413.75916     456.1971     307.4445
   1413.74390     454.2691     306.3553   1413.74390     454.2691     306.3553
   1413.72864     451.7006     305.4621   1413.72864     451.7006     305.4621
   1413.71338     449.1930     303.7154   1413.71338     449.1930     303.7154
   1413.69812     446.3623     301.9600   1413.69812     446.3623     301.9600
   1413.68286     444.4307     300.7409   1413.68286     444.4307     300.7409
   1413.66760     441.8179     299.9136   1413.66760     441.8179     299.9136
   1413.65234     439.3692     298.2987   1413.65234     439.3692     298.2987
   1413.63708     436.2145     296.7717   1413.63708     436.2145     296.7717
   1413.62183     434.8406     295.5844   1413.62183     434.8406     295.5844
   1413.60657     432.4020     294.4234   1413.60657     432.4020     294.4234
   1413.59131     429.0384     292.5880   1413.59131     429.0384     292.5880
   1413.57605     427.3042     291.4693   1413.57605     427.3042     291.4693
   1413.56079     424.0180     290.0684   1413.56079     424.0180     290.0684
   1413.54553     422.1194     289.1360   1413.54553     422.1194     289.1360
   1413.53027     420.0556     287.8664   1413.53027     420.0556     287.8664
   1413.51501     416.8476     286.3413   1413.51501     416.8476     286.3413
   1413.49976     415.1602     284.8167   1413.49976     415.1602     284.8167
   1413.48450     412.2246     283.7086   1413.48450     412.2246     283.7086
   1413.46924     409.9295     282.2973   1413.46924     409.9295     282.2973
   1413.45398     406.8408     280.7330   1413.45398     406.8408     280.7330
   1413.43872     405.9143     279.8610   1413.43872     405.9143     279.8610
   1413.42346     402.9504     278.3009   1413.42346     402.9504     278.3009
   1413.40820     400.2507     277.0493   1413.40820     400.2507     277.0493
   1413.39294     397.9501     275.8470   1413.39294     397.9501     275.8470
   1413.37769     395.7575     274.5471   1413.37769     395.7575     274.5471
   1413.36243     393.5889     272.9001   1413.36243     393.5889     272.9001
   1413.34717     390.9974     271.4238   1413.34717     390.9974     271.4238
   1413.33191     389.0688     270.5152   1413.33191     389.0688     270.5152
   1413.31665     386.3177     269.4968   1413.31665     386.3177     269.4968
   1413.30139     384.4328     268.5569   1413.30139     384.4328     268.5569
   1413.28613     382.1818     267.0230   1413.28613     382.1818     267.0230
   1413.27087     380.4148     265.6667   1413.27087     380.4148     265.6667
   1413.25562     377.9105     264.7967   1413.25562     377.9105     264.7967
   1413.24036     375.5551     263.5147   1413.24036     375.5551     263.5147
   1413.22510     373.2689     262.5748   1413.22510     373.2689     262.5748
   1413.20984     371.1464     261.4515   1413.20984     371.1464     261.4515
   1413.19458     369.1768     260.2363   1413.19458     369.1768     260.2363
   1413.17932     367.3795     258.7652   1413.17932     367.3795     258.7652
   1413.16406     364.8113     258.0392   1413.16406     364.8113     258.0392
   1413.14880     363.7242     256.8816   1413.14880     363.7242     256.8816
   1413.13354     360.9004     256.0410   1413.13354     360.9004     256.0410
   1413.11829     359.5367     254.8710   1413.11829     359.5367     254.8710
   1413.10303     357.3117     254.1214   1413.10303     357.3117     254.1214
   1413.08777     355.3551     252.9137   1413.08777     355.3551     252.9137
   1413.07251     353.2313     252.2140   1413.07251     353.2313     252.2140
   1413.05725     351.6529     250.9579   1413.05725     351.6529     250.9579
   1413.04199     349.6830     250.1873   1413.04199     349.6830     250.1873
   1413.02673     347.4349     249.1358   1413.02673     347.4349     249.1358
   1413.01147     345.7075     247.9582   1413.01147     345.7075     247.9582
   1412.99622     344.0067     247.1721   1412.99622     344.0067     247.1721
   1412.98096     342.5522     246.3277   1412.98096     342.5522     246.3277
   1412.96570     340.8903     245.4515   1412.96570     340.8903     245.4515
   1412.95044     339.0655     244.5304   1412.95044     339.0655     244.5304
   1412.93518     337.3246     243.5985   1412.93518     337.3246     243.5985
   1412.91992     335.4073     242.9062   1412.91992     335.4073     242.9062
   1412.90466     334.5640     242.4486   1412.90466     334.5640     242.4486
   1412.88940     332.3184     241.4093   1412.88940     332.3184     241.4093
   1412.87415     330.9980     240.4433   1412.87415     330.9980     240.4433
   1412.85889     329.6676     240.2733   1412.85889     329.6676     240.2733
   1412.84363     328.9058     238.9346   1412.84363     328.9058     238.9346
   1412.82837     326.7800     238.7940   1412.82837     326.7800     238.7940
   1412.81311     325.5415     238.0059   1412.81311     325.5415     238.0059
   1412.79785     324.2314     237.6899   1412.79785     324.2314     237.6899
   1412.78259     322.4352     236.9205   1412.78259     322.4352     236.9205
   1412.76733     321.4601     236.6436   1412.76733     321.4601     236.6436
   1412.75208     320.8347     235.9837   1412.75208     320.8347     235.9837
   1412.73682     319.5665     235.5701   1412.73682     319.5665     235.5701
   1412.72156     318.6921     234.9235   1412.72156     318.6921     234.9235
   1412.70630     317.0615     234.2658   1412.70630     317.0615     234.2658
   1412.69104     315.9526     234.1949   1412.69104     315.9526     234.1949
   1412.67578     315.3086     233.6433   1412.67578     315.3086     233.6433
   1412.66052     314.2586     233.4328   1412.66052     314.2586     233.4328
   1412.64526     313.1109     233.1179   1412.64526     313.1109     233.1179
   1412.63000     311.9030     232.9749   1412.63000     311.9030     232.9749
   1412.61475     311.5365     232.3170   1412.61475     311.5365     232.3170
   1412.59949     310.9143     232.1196   1412.59949     310.9143     232.1196
   1412.58423     310.4417     232.3224   1412.58423     310.4417     232.3224
   1412.56897     309.7023     231.8446   1412.56897     309.7023     231.8446
   1412.55371     308.8766     231.5826   1412.55371     308.8766     231.5826
   1412.53845     308.0725     231.7451   1412.53845     308.0725     231.7451
   1412.52319     307.7398     231.4399   1412.52319     307.7398     231.4399
   1412.50793     307.1397     231.4501   1412.50793     307.1397     231.4501
   1412.49268     306.2459     231.6152   1412.49268     306.2459     231.6152
   1412.47742     305.8125     231.4032   1412.47742     305.8125     231.4032
   1412.46216     305.7396     231.2530   1412.46216     305.7396     231.2530
   1412.44690     305.2649     231.6853   1412.44690     305.2649     231.6853
   1412.43164     305.0663     231.9668   1412.43164     305.0663     231.9668
   1412.41638     304.8657     231.9921   1412.41638     304.8657     231.9921
   1412.40112     304.6301     232.4559   1412.40112     304.6301     232.4559
   1412.38586     304.7345     232.1268   1412.38586     304.7345     232.1268
   1412.37061     304.4306     232.1981   1412.37061     304.4306     232.1981
   1412.35535     304.6301     232.2766   1412.35535     304.6301     232.2766
   1412.34009     304.2553     232.7594   1412.34009     304.2553     232.7594
   1412.32483     304.3590     233.2291   1412.32483     304.3590     233.2291
   1412.30957     304.3126     233.3384   1412.30957     304.3126     233.3384
   1412.29431     304.9059     234.2344   1412.29431     304.9059     234.2344
   1412.27905     304.9062     234.7462   1412.27905     304.9062     234.7462
   1412.26379     304.4539     234.9210   1412.26379     304.4539     234.9210
   1412.24854     304.8723     235.7196   1412.24854     304.8723     235.7196
   1412.23328     305.4517     236.1347   1412.23328     305.4517     236.1347
   1412.21802     305.8509     236.6732   1412.21802     305.8509     236.6732
   1412.20276     306.4689     237.4794   1412.20276     306.4689     237.4794