#     FILENAME=!Skynet_57528_lach-hhg-165_20540_20989.cyb.fits
#     BASENAME=Skynet_57528_lach-hhg-165_20540_20989
#     SRC_NAME=lach-hhg-165
#     OBSERVER=hhgmadison16_9500
#     DATE_OBS=2016-05-20T18:08:26.750
#        OBSID=20540
#      SCANNUM=20989
#          MJD=57528.7569
#          UTC=65396
#     SCANTYPE=track
#     DATAMODE=HIRES
#     TUNEFREQ=1420.0000
# Actual_FREQ1=1420.0000
# Actual_FREQ2=1420.0000
#    LO1Tuning=6870.000
#     RFFILTER=1355_1435
#        OBSBW=-15.6250
#        NCHAN=1024 
#        FOCUS=37.0709
#           RA=05:04:11.19
#          DEC=41:21:07.65
#      RA(hrs)=5.069800
#     DEC(deg)=41.352100
#    AZIM(deg)=51.991
#    ELEV(deg)=84.971
#     IFattens=10.00, 9.00
#      WARNING=None
#    TCAL_XL1=7.9635
#    TCAL_YR1=9.1340
#    TCAL_XL2=7.9635
#    TCAL_YR2=9.1340
#     TRX_XL1=11.7060
#     TRX_YR1=11.7060
#     TRX_XL2=11.7060
#     TRX_YR2=11.7060
#        TAVE=1.0000
#Freq1(MHz)          XL1          YR1  Freq2(MHz)          XL2          YR2 

   1427.81250     373.8298     333.0947   1427.81250     373.8298     333.0947
   1427.79724     373.7658     334.1352   1427.79724     373.7658     334.1352
   1427.78198     374.1903     336.5895   1427.78198     374.1903     336.5895
   1427.76672     375.2803     337.2904   1427.76672     375.2803     337.2904
   1427.75146     375.7267     339.4024   1427.75146     375.7267     339.4024
   1427.73621     376.4959     341.2994   1427.73621     376.4959     341.2994
   1427.72095     377.0559     342.8262   1427.72095     377.0559     342.8262
   1427.70569     379.1820     344.4143   1427.70569     379.1820     344.4143
   1427.69043     380.4920     346.2544   1427.69043     380.4920     346.2544
   1427.67517     380.9321     348.3361   1427.67517     380.9321     348.3361
   1427.65991     381.6666     350.0227   1427.65991     381.6666     350.0227
   1427.64465     382.5182     352.0705   1427.64465     382.5182     352.0705
   1427.62939     383.9270     354.3553   1427.62939     383.9270     354.3553
   1427.61414     385.7530     356.5028   1427.61414     385.7530     356.5028
   1427.59888     386.7443     358.5849   1427.59888     386.7443     358.5849
   1427.58362     388.2213     360.9260   1427.58362     388.2213     360.9260
   1427.56836     389.5186     363.2672   1427.56836     389.5186     363.2672
   1427.55310     390.8903     365.4770   1427.55310     390.8903     365.4770
   1427.53784     392.5959     367.3752   1427.53784     392.5959     367.3752
   1427.52258     393.2767     370.2359   1427.52258     393.2767     370.2359
   1427.50732     395.0184     372.5878   1427.50732     395.0184     372.5878
   1427.49207     397.4314     375.0580   1427.49207     397.4314     375.0580
   1427.47681     398.4500     376.7671   1427.47681     398.4500     376.7671
   1427.46155     400.8667     379.4532   1427.46155     400.8667     379.4532
   1427.44629     402.0734     381.9302   1427.44629     402.0734     381.9302
   1427.43103     404.0146     384.4241   1427.43103     404.0146     384.4241
   1427.41577     405.8721     387.4050   1427.41577     405.8721     387.4050
   1427.40051     407.4916     390.6891   1427.40051     407.4916     390.6891
   1427.38525     409.0434     393.3309   1427.38525     409.0434     393.3309
   1427.37000     412.2379     395.7584   1427.37000     412.2379     395.7584
   1427.35474     413.8484     398.3665   1427.35474     413.8484     398.3665
   1427.33948     416.3442     400.5585   1427.33948     416.3442     400.5585
   1427.32422     417.9179     402.8257   1427.32422     417.9179     402.8257
   1427.30896     420.7256     406.3984   1427.30896     420.7256     406.3984
   1427.29370     421.9050     408.3173   1427.29370     421.9050     408.3173
   1427.27844     424.2259     411.7988   1427.27844     424.2259     411.7988
   1427.26318     426.8884     414.8086   1427.26318     426.8884     414.8086
   1427.24792     428.7334     418.0215   1427.24792     428.7334     418.0215
   1427.23267     431.9333     421.0266   1427.23267     431.9333     421.0266
   1427.21741     434.3460     423.8647   1427.21741     434.3460     423.8647
   1427.20215     436.2962     426.4624   1427.20215     436.2962     426.4624
   1427.18689     438.3925     429.9891   1427.18689     438.3925     429.9891
   1427.17163     442.1006     432.4703   1427.17163     442.1006     432.4703
   1427.15637     443.6047     436.1828   1427.15637     443.6047     436.1828
   1427.14111     446.8275     437.9300   1427.14111     446.8275     437.9300
   1427.12585     449.7007     441.1637   1427.12585     449.7007     441.1637
   1427.11060     452.0946     444.7424   1427.11060     452.0946     444.7424
   1427.09534     454.2867     447.2228   1427.09534     454.2867     447.2228
   1427.08008     457.5123     450.7314   1427.08008     457.5123     450.7314
   1427.06482     460.5053     453.6038   1427.06482     460.5053     453.6038
   1427.04956     462.3017     456.2638   1427.04956     462.3017     456.2638
   1427.03430     465.9386     458.8707   1427.03430     465.9386     458.8707
   1427.01904     468.6104     462.1878   1427.01904     468.6104     462.1878
   1427.00378     471.1974     465.2351   1427.00378     471.1974     465.2351
   1426.98853     474.3777     468.0060   1426.98853     474.3777     468.0060
   1426.97327     476.6194     471.0328   1426.97327     476.6194     471.0328
   1426.95801     479.9638     474.6980   1426.95801     479.9638     474.6980
   1426.94275     482.7489     477.0057   1426.94275     482.7489     477.0057
   1426.92749     485.4248     480.2483   1426.92749     485.4248     480.2483
   1426.91223     488.0736     483.6434   1426.91223     488.0736     483.6434
   1426.89697     490.8592     486.0683   1426.89697     490.8592     486.0683
   1426.88171     494.2133     489.9496   1426.88171     494.2133     489.9496
   1426.86646     497.9087     492.6880   1426.86646     497.9087     492.6880
   1426.85120     500.2178     495.3166   1426.85120     500.2178     495.3166
   1426.83594     503.7671     498.4258   1426.83594     503.7671     498.4258
   1426.82068     506.9171     501.4089   1426.82068     506.9171     501.4089
   1426.80542     509.5315     504.0695   1426.80542     509.5315     504.0695
   1426.79016     512.0210     507.0096   1426.79016     512.0210     507.0096
   1426.77490     516.0751     509.8929   1426.77490     516.0751     509.8929
   1426.75964     518.9166     512.4910   1426.75964     518.9166     512.4910
   1426.74438     521.6030     515.1547   1426.74438     521.6030     515.1547
   1426.72913     524.6115     518.2687   1426.72913     524.6115     518.2687
   1426.71387     528.0529     521.4898   1426.71387     528.0529     521.4898
   1426.69861     530.7488     524.7017   1426.69861     530.7488     524.7017
   1426.68335     535.1546     527.2028   1426.68335     535.1546     527.2028
   1426.66809     537.2327     530.2468   1426.66809     537.2327     530.2468
   1426.65283     541.0219     532.4534   1426.65283     541.0219     532.4534
   1426.63757     543.2629     534.1951   1426.63757     543.2629     534.1951
   1426.62231     552.3813     539.5315   1426.62231     552.3813     539.5315
   1426.60706     550.3321     540.3314   1426.60706     550.3321     540.3314
   1426.59180     552.8800     542.5543   1426.59180     552.8800     542.5543
   1426.57654     555.6249     545.5372   1426.57654     555.6249     545.5372
   1426.56128     558.6971     548.5960   1426.56128     558.6971     548.5960
   1426.54602     562.6290     550.2019   1426.54602     562.6290     550.2019
   1426.53076     564.6268     552.5797   1426.53076     564.6268     552.5797
   1426.51550     568.4434     556.2372   1426.51550     568.4434     556.2372
   1426.50024     572.3991     558.7606   1426.50024     572.3991     558.7606
   1426.48499     575.2513     561.0234   1426.48499     575.2513     561.0234
   1426.46973     577.2999     562.9966   1426.46973     577.2999     562.9966
   1426.45447     581.1415     565.4167   1426.45447     581.1415     565.4167
   1426.43921     583.8433     567.9250   1426.43921     583.8433     567.9250
   1426.42395     587.0575     571.1333   1426.42395     587.0575     571.1333
   1426.40869     589.6571     572.9041   1426.40869     589.6571     572.9041
   1426.39343     593.3096     574.9410   1426.39343     593.3096     574.9410
   1426.37817     596.3192     576.4924   1426.37817     596.3192     576.4924
   1426.36292     598.4582     578.5698   1426.36292     598.4582     578.5698
   1426.34766     602.3223     581.3909   1426.34766     602.3223     581.3909
   1426.33240     604.9483     582.2542   1426.33240     604.9483     582.2542
   1426.31714     607.7325     584.8851   1426.31714     607.7325     584.8851
   1426.30188     611.3039     586.4619   1426.30188     611.3039     586.4619
   1426.28662     613.7520     589.5614   1426.28662     613.7520     589.5614
   1426.27136     616.2391     592.0885   1426.27136     616.2391     592.0885
   1426.25610     619.5729     592.6932   1426.25610     619.5729     592.6932
   1426.24084     622.5632     594.7786   1426.24084     622.5632     594.7786
   1426.22559     624.7214     596.5109   1426.22559     624.7214     596.5109
   1426.21033     628.1848     598.5516   1426.21033     628.1848     598.5516
   1426.19507     630.7260     600.1473   1426.19507     630.7260     600.1473
   1426.17981     633.4299     602.5870   1426.17981     633.4299     602.5870
   1426.16455     635.5934     604.5643   1426.16455     635.5934     604.5643
   1426.14929     638.5770     606.7394   1426.14929     638.5770     606.7394
   1426.13403     641.5964     607.4072   1426.13403     641.5964     607.4072
   1426.11877     643.6948     609.8043   1426.11877     643.6948     609.8043
   1426.10352     646.7299     610.9336   1426.10352     646.7299     610.9336
   1426.08826     650.0038     612.6356   1426.08826     650.0038     612.6356
   1426.07300     653.0139     614.2587   1426.07300     653.0139     614.2587
   1426.05774     654.6761     615.6966   1426.05774     654.6761     615.6966
   1426.04248     656.6702     616.2938   1426.04248     656.6702     616.2938
   1426.02722     660.8101     618.0430   1426.02722     660.8101     618.0430
   1426.01196     663.1223     619.6142   1426.01196     663.1223     619.6142
   1425.99670     665.0711     621.0370   1425.99670     665.0711     621.0370
   1425.98145     667.0584     623.3046   1425.98145     667.0584     623.3046
   1425.96619     670.4166     623.5455   1425.96619     670.4166     623.5455
   1425.95093     672.6248     626.0306   1425.95093     672.6248     626.0306
   1425.93567     675.1115     626.7067   1425.93567     675.1115     626.7067
   1425.92041     677.1790     627.4564   1425.92041     677.1790     627.4564
   1425.90515     680.3593     629.5493   1425.90515     680.3593     629.5493
   1425.88989     681.2777     629.7437   1425.88989     681.2777     629.7437
   1425.87463     684.3081     630.1266   1425.87463     684.3081     630.1266
   1425.85938     684.8993     632.4862   1425.85938     684.8993     632.4862
   1425.84412     688.0859     633.5458   1425.84412     688.0859     633.5458
   1425.82886     690.0710     634.8121   1425.82886     690.0710     634.8121
   1425.81360     692.8029     634.4606   1425.81360     692.8029     634.4606
   1425.79834     695.0453     635.7915   1425.79834     695.0453     635.7915
   1425.78308     696.2125     638.0269   1425.78308     696.2125     638.0269
   1425.76782     698.6248     638.9250   1425.76782     698.6248     638.9250
   1425.75256     700.4058     638.4543   1425.75256     700.4058     638.4543
   1425.73730     702.9988     639.2919   1425.73730     702.9988     639.2919
   1425.72205     705.4017     640.6436   1425.72205     705.4017     640.6436
   1425.70679     705.5657     641.8577   1425.70679     705.5657     641.8577
   1425.69153     708.2588     642.7799   1425.69153     708.2588     642.7799
   1425.67627     711.4034     643.2960   1425.67627     711.4034     643.2960
   1425.66101     712.2764     641.8163   1425.66101     712.2764     641.8163
   1425.64575     713.7985     644.4889   1425.64575     713.7985     644.4889
   1425.63049     715.8020     644.7479   1425.63049     715.8020     644.7479
   1425.61523     717.4468     645.2410   1425.61523     717.4468     645.2410
   1425.59998     719.6158     645.6794   1425.59998     719.6158     645.6794
   1425.58472     721.4775     645.8298   1425.58472     721.4775     645.8298
   1425.56946     722.0795     647.3307   1425.56946     722.0795     647.3307
   1425.55420     723.7692     646.3468   1425.55420     723.7692     646.3468
   1425.53894     725.1987     648.0571   1425.53894     725.1987     648.0571
   1425.52368     726.5629     647.4112   1425.52368     726.5629     647.4112
   1425.50842     729.7272     648.8019   1425.50842     729.7272     648.8019
   1425.49316     729.3842     649.8625   1425.49316     729.3842     649.8625
   1425.47791     731.3362     648.9921   1425.47791     731.3362     648.9921
   1425.46265     732.0179     649.6949   1425.46265     732.0179     649.6949
   1425.44739     734.6852     650.0377   1425.44739     734.6852     650.0377
   1425.43213     734.3221     649.3609   1425.43213     734.3221     649.3609
   1425.41687     737.5892     651.6431   1425.41687     737.5892     651.6431
   1425.40161     738.0695     650.6659   1425.40161     738.0695     650.6659
   1425.38635     738.5844     651.3707   1425.38635     738.5844     651.3707
   1425.37109     740.3975     652.6295   1425.37109     740.3975     652.6295
   1425.35583     742.4969     650.7609   1425.35583     742.4969     650.7609
   1425.34058     742.4631     652.3168   1425.34058     742.4631     652.3168
   1425.32532     742.0042     651.4385   1425.32532     742.0042     651.4385
   1425.31006     744.7750     651.4020   1425.31006     744.7750     651.4020
   1425.29480     745.7226     652.4136   1425.29480     745.7226     652.4136
   1425.27954     746.0237     652.4890   1425.27954     746.0237     652.4890
   1425.26428     748.1500     652.8010   1425.26428     748.1500     652.8010
   1425.24902     748.7696     653.0447   1425.24902     748.7696     653.0447
   1425.23376     750.9141     653.2624   1425.23376     750.9141     653.2624
   1425.21851     750.8139     652.5870   1425.21851     750.8139     652.5870
   1425.20325     751.8323     652.9330   1425.20325     751.8323     652.9330
   1425.18799     751.1675     652.9895   1425.18799     751.1675     652.9895
   1425.17273     754.3328     652.3422   1425.17273     754.3328     652.3422
   1425.15747     753.2017     652.6407   1425.15747     753.2017     652.6407
   1425.14221     753.7283     651.3043   1425.14221     753.7283     651.3043
   1425.12695     755.3328     653.0292   1425.12695     755.3328     653.0292
   1425.11169     755.4805     651.9520   1425.11169     755.4805     651.9520
   1425.09644     758.3680     651.5261   1425.09644     758.3680     651.5261
   1425.08118     757.3699     651.6368   1425.08118     757.3699     651.6368
   1425.06592     756.3104     652.3730   1425.06592     756.3104     652.3730
   1425.05066     758.4928     652.1360   1425.05066     758.4928     652.1360
   1425.03540     759.2291     651.2127   1425.03540     759.2291     651.2127
   1425.02014     758.0399     652.1843   1425.02014     758.0399     652.1843
   1425.00488     759.6475     650.6077   1425.00488     759.6475     650.6077
   1424.98962     759.8022     651.0084   1424.98962     759.8022     651.0084
   1424.97437     762.4279     651.2250   1424.97437     762.4279     651.2250
   1424.95911     760.1939     650.4098   1424.95911     760.1939     650.4098
   1424.94385     761.8608     649.9813   1424.94385     761.8608     649.9813
   1424.92859     761.3121     649.4416   1424.92859     761.3121     649.4416
   1424.91333     762.1077     649.4058   1424.91333     762.1077     649.4058
   1424.89807     761.8636     647.9894   1424.89807     761.8636     647.9894
   1424.88281     763.0013     648.8849   1424.88281     763.0013     648.8849
   1424.86755     763.9669     649.0740   1424.86755     763.9669     649.0740
   1424.85229     763.7469     649.5567   1424.85229     763.7469     649.5567
   1424.83704     763.9700     647.8374   1424.83704     763.9700     647.8374
   1424.82178     764.1273     646.8059   1424.82178     764.1273     646.8059
   1424.80652     763.3456     647.8070   1424.80652     763.3456     647.8070
   1424.79126     763.9001     646.7040   1424.79126     763.9001     646.7040
   1424.77600     764.2205     647.0632   1424.77600     764.2205     647.0632
   1424.76074     764.0899     646.6672   1424.76074     764.0899     646.6672
   1424.74548     763.6198     645.5739   1424.74548     763.6198     645.5739
   1424.73022     764.9417     644.2977   1424.73022     764.9417     644.2977
   1424.71497     764.5933     644.2141   1424.71497     764.5933     644.2141
   1424.69971     763.7012     643.4003   1424.69971     763.7012     643.4003
   1424.68445     765.1434     645.1680   1424.68445     765.1434     645.1680
   1424.66919     764.3188     643.8379   1424.66919     764.3188     643.8379
   1424.65393     764.8271     643.3589   1424.65393     764.8271     643.3589
   1424.63867     764.3782     641.5669   1424.63867     764.3782     641.5669
   1424.62341     765.5068     641.4556   1424.62341     765.5068     641.4556
   1424.60815     763.1847     640.1689   1424.60815     763.1847     640.1689
   1424.59290     764.1744     640.4340   1424.59290     764.1744     640.4340
   1424.57764     765.1974     639.6813   1424.57764     765.1974     639.6813
   1424.56238     763.9894     640.0390   1424.56238     763.9894     640.0390
   1424.54712     763.5596     638.9522   1424.54712     763.5596     638.9522
   1424.53186     764.1862     637.8986   1424.53186     764.1862     637.8986
   1424.51660     764.7980     639.1179   1424.51660     764.7980     639.1179
   1424.50134     764.5714     637.1796   1424.50134     764.5714     637.1796
   1424.48608     763.3562     636.7262   1424.48608     763.3562     636.7262
   1424.47083     763.4877     636.2833   1424.47083     763.4877     636.2833
   1424.45557     764.0549     635.9804   1424.45557     764.0549     635.9804
   1424.44031     763.3632     634.6523   1424.44031     763.3632     634.6523
   1424.42505     763.1110     635.0319   1424.42505     763.1110     635.0319
   1424.40979     763.2250     634.4748   1424.40979     763.2250     634.4748
   1424.39453     763.4926     633.3297   1424.39453     763.4926     633.3297
   1424.37927     761.7960     632.7280   1424.37927     761.7960     632.7280
   1424.36401     761.3811     631.4919   1424.36401     761.3811     631.4919
   1424.34875     762.2537     631.6087   1424.34875     762.2537     631.6087
   1424.33350     762.0361     630.7298   1424.33350     762.0361     630.7298
   1424.31824     760.8694     630.9402   1424.31824     760.8694     630.9402
   1424.30298     760.9145     629.7195   1424.30298     760.9145     629.7195
   1424.28772     761.7698     628.9799   1424.28772     761.7698     628.9799
   1424.27246     760.0681     627.6277   1424.27246     760.0681     627.6277
   1424.25720     759.1707     627.7921   1424.25720     759.1707     627.7921
   1424.24194     759.8497     627.5396   1424.24194     759.8497     627.5396
   1424.22668     760.0565     625.9095   1424.22668     760.0565     625.9095
   1424.21143     759.5823     625.2334   1424.21143     759.5823     625.2334
   1424.19617     758.4706     624.4792   1424.19617     758.4706     624.4792
   1424.18091     758.3412     624.8391   1424.18091     758.3412     624.8391
   1424.16565     758.4947     622.0874   1424.16565     758.4947     622.0874
   1424.15039     757.1203     622.5326   1424.15039     757.1203     622.5326
   1424.13513     756.3676     622.8536   1424.13513     756.3676     622.8536
   1424.11987     755.7075     621.5854   1424.11987     755.7075     621.5854
   1424.10461     755.7739     620.4601   1424.10461     755.7739     620.4601
   1424.08936     756.6366     619.6115   1424.08936     756.6366     619.6115
   1424.07410     755.6132     618.1937   1424.07410     755.6132     618.1937
   1424.05884     755.4863     617.1858   1424.05884     755.4863     617.1858
   1424.04358     755.9136     618.5204   1424.04358     755.9136     618.5204
   1424.02832     753.2010     616.3833   1424.02832     753.2010     616.3833
   1424.01306     754.1708     616.3401   1424.01306     754.1708     616.3401
   1423.99780     753.2728     616.1977   1423.99780     753.2728     616.1977
   1423.98254     753.2787     615.2146   1423.98254     753.2787     615.2146
   1423.96729     753.1086     613.0801   1423.96729     753.1086     613.0801
   1423.95203     751.8942     613.7551   1423.95203     751.8942     613.7551
   1423.93677     751.4337     612.6664   1423.93677     751.4337     612.6664
   1423.92151     751.4722     611.2727   1423.92151     751.4722     611.2727
   1423.90625     751.2829     610.8570   1423.90625     751.2829     610.8570
   1423.89099     750.8235     610.6871   1423.89099     750.8235     610.6871
   1423.87573     749.9128     609.7321   1423.87573     749.9128     609.7321
   1423.86047     748.9550     609.5096   1423.86047     748.9550     609.5096
   1423.84521     749.5294     608.4614   1423.84521     749.5294     608.4614
   1423.82996     749.5543     606.3620   1423.82996     749.5543     606.3620
   1423.81470     748.7638     606.6681   1423.81470     748.7638     606.6681
   1423.79944     747.2986     606.9805   1423.79944     747.2986     606.9805
   1423.78418     748.3534     605.0410   1423.78418     748.3534     605.0410
   1423.76892     747.2074     604.3505   1423.76892     747.2074     604.3505
   1423.75366     746.6113     603.8131   1423.75366     746.6113     603.8131
   1423.73840     746.6578     601.9980   1423.73840     746.6578     601.9980
   1423.72314     746.9109     602.6423   1423.72314     746.9109     602.6423
   1423.70789     745.7161     601.7129   1423.70789     745.7161     601.7129
   1423.69263     744.5532     600.1840   1423.69263     744.5532     600.1840
   1423.67737     745.7065     600.2659   1423.67737     745.7065     600.2659
   1423.66211     744.1147     598.5585   1423.66211     744.1147     598.5585
   1423.64685     743.7239     596.9794   1423.64685     743.7239     596.9794
   1423.63159     743.2629     598.6904   1423.63159     743.2629     598.6904
   1423.61633     743.7378     596.4288   1423.61633     743.7378     596.4288
   1423.60107     742.3391     595.9871   1423.60107     742.3391     595.9871
   1423.58582     741.1119     595.2136   1423.58582     741.1119     595.2136
   1423.57056     741.7079     595.0751   1423.57056     741.7079     595.0751
   1423.55530     741.6009     594.0465   1423.55530     741.6009     594.0465
   1423.54004     741.0809     593.2538   1423.54004     741.0809     593.2538
   1423.52478     741.4574     591.5870   1423.52478     741.4574     591.5870
   1423.50952     740.8841     590.6136   1423.50952     740.8841     590.6136
   1423.49426     740.1681     589.8496   1423.49426     740.1681     589.8496
   1423.47900     739.9237     589.9232   1423.47900     739.9237     589.9232
   1423.46375     738.4730     587.9052   1423.46375     738.4730     587.9052
   1423.44849     739.6353     588.0639   1423.44849     739.6353     588.0639
   1423.43323     737.4667     587.3002   1423.43323     737.4667     587.3002
   1423.41797     737.3987     587.1162   1423.41797     737.3987     587.1162
   1423.40271     736.3146     584.5519   1423.40271     736.3146     584.5519
   1423.38745     736.1843     584.5942   1423.38745     736.1843     584.5942
   1423.37219     736.3069     584.4241   1423.37219     736.3069     584.4241
   1423.35693     735.0963     582.9197   1423.35693     735.0963     582.9197
   1423.34167     735.8648     582.2870   1423.34167     735.8648     582.2870
   1423.32642     735.8110     581.7190   1423.32642     735.8110     581.7190
   1423.31116     735.0345     580.4121   1423.31116     735.0345     580.4121
   1423.29590     735.3629     578.9885   1423.29590     735.3629     578.9885
   1423.28064     733.6761     579.5837   1423.28064     733.6761     579.5837
   1423.26538     733.2640     577.9267   1423.26538     733.2640     577.9267
   1423.25012     733.5969     576.5928   1423.25012     733.5969     576.5928
   1423.23486     733.8078     575.6498   1423.23486     733.8078     575.6498
   1423.21960     731.2104     575.5834   1423.21960     731.2104     575.5834
   1423.20435     732.6093     575.5533   1423.20435     732.6093     575.5533
   1423.18909     731.6949     573.0089   1423.18909     731.6949     573.0089
   1423.17383     731.6955     573.0712   1423.17383     731.6955     573.0712
   1423.15857     731.4681     571.6243   1423.15857     731.4681     571.6243
   1423.14331     731.6246     570.9684   1423.14331     731.6246     570.9684
   1423.12805     730.7699     570.5266   1423.12805     730.7699     570.5266
   1423.11279     731.0938     569.9120   1423.11279     731.0938     569.9120
   1423.09753     730.8879     568.2241   1423.09753     730.8879     568.2241
   1423.08228     730.3011     567.6970   1423.08228     730.3011     567.6970
   1423.06702     730.0414     566.2531   1423.06702     730.0414     566.2531
   1423.05176     728.8680     566.2726   1423.05176     728.8680     566.2726
   1423.03650     728.1287     564.4308   1423.03650     728.1287     564.4308
   1423.02124     727.8108     564.5444   1423.02124     727.8108     564.5444
   1423.00598     727.7038     563.6905   1423.00598     727.7038     563.6905
   1422.99072     729.8657     561.3117   1422.99072     729.8657     561.3117
   1422.97546     726.9835     560.5422   1422.97546     726.9835     560.5422
   1422.96021     728.5646     560.4904   1422.96021     728.5646     560.4904
   1422.94495     727.6087     560.6818   1422.94495     727.6087     560.6818
   1422.92969     726.0289     557.4908   1422.92969     726.0289     557.4908
   1422.91443     726.1567     557.7739   1422.91443     726.1567     557.7739
   1422.89917     727.2373     557.1683   1422.89917     727.2373     557.1683
   1422.88391     726.9125     555.8759   1422.88391     726.9125     555.8759
   1422.86865     726.2473     554.7836   1422.86865     726.2473     554.7836
   1422.85339     725.5302     553.9122   1422.85339     725.5302     553.9122
   1422.83813     726.4481     553.1144   1422.83813     726.4481     553.1144
   1422.82288     725.8955     552.3760   1422.82288     725.8955     552.3760
   1422.80762     725.5546     550.9387   1422.80762     725.5546     550.9387
   1422.79236     724.5894     550.9829   1422.79236     724.5894     550.9829
   1422.77710     725.0397     551.0691   1422.77710     725.0397     551.0691
   1422.76184     724.9444     549.2299   1422.76184     724.9444     549.2299
   1422.74658     724.0583     547.9304   1422.74658     724.0583     547.9304
   1422.73132     724.9117     547.5151   1422.73132     724.9117     547.5151
   1422.71606     724.8391     546.5909   1422.71606     724.8391     546.5909
   1422.70081     724.0665     545.7272   1422.70081     724.0665     545.7272
   1422.68555     723.4403     544.8333   1422.68555     723.4403     544.8333
   1422.67029     725.1379     544.4911   1422.67029     725.1379     544.4911
   1422.65503     723.2284     542.3638   1422.65503     723.2284     542.3638
   1422.63977     723.1619     542.5851   1422.63977     723.1619     542.5851
   1422.62451     722.4218     540.7027   1422.62451     722.4218     540.7027
   1422.60925     722.9103     540.3663   1422.60925     722.9103     540.3663
   1422.59399     721.5637     539.3629   1422.59399     721.5637     539.3629
   1422.57874     721.9924     539.2027   1422.57874     721.9924     539.2027
   1422.56348     721.9247     538.9423   1422.56348     721.9247     538.9423
   1422.54822     721.7637     535.2991   1422.54822     721.7637     535.2991
   1422.53296     722.6339     536.5511   1422.53296     722.6339     536.5511
   1422.51770     721.3894     533.9830   1422.51770     721.3894     533.9830
   1422.50244     721.7977     534.1116   1422.50244     721.7977     534.1116
   1422.48718     721.0687     533.2631   1422.48718     721.0687     533.2631
   1422.47192     721.7365     533.0186   1422.47192     721.7365     533.0186
   1422.45667     721.4733     532.5341   1422.45667     721.4733     532.5341
   1422.44141     721.5218     530.8060   1422.44141     721.5218     530.8060
   1422.42615     720.9865     530.2041   1422.42615     720.9865     530.2041
   1422.41089     720.5364     528.9929   1422.41089     720.5364     528.9929
   1422.39563     719.9302     527.8481   1422.39563     719.9302     527.8481
   1422.38037     721.4185     527.0131   1422.38037     721.4185     527.0131
   1422.36511     720.9435     526.5112   1422.36511     720.9435     526.5112
   1422.34985     720.7764     525.5362   1422.34985     720.7764     525.5362
   1422.33459     720.0295     525.1515   1422.33459     720.0295     525.1515
   1422.31934     719.4594     524.2495   1422.31934     719.4594     524.2495
   1422.30408     719.4354     523.4008   1422.30408     719.4354     523.4008
   1422.28882     719.2961     521.8986   1422.28882     719.2961     521.8986
   1422.27356     720.5052     521.1217   1422.27356     720.5052     521.1217
   1422.25830     719.1372     520.3586   1422.25830     719.1372     520.3586
   1422.24304     720.2126     518.6490   1422.24304     720.2126     518.6490
   1422.22778     720.3253     518.0717   1422.22778     720.3253     518.0717
   1422.21252     719.7930     517.3462   1422.21252     719.7930     517.3462
   1422.19727     720.5396     515.9777   1422.19727     720.5396     515.9777
   1422.18201     718.7310     516.0482   1422.18201     718.7310     516.0482
   1422.16675     719.4414     514.2337   1422.16675     719.4414     514.2337
   1422.15149     718.6509     513.1700   1422.15149     718.6509     513.1700
   1422.13623     718.5136     513.0159   1422.13623     718.5136     513.0159
   1422.12097     719.8981     512.4717   1422.12097     719.8981     512.4717
   1422.10571     719.6465     510.6927   1422.10571     719.6465     510.6927
   1422.09045     718.8049     510.1271   1422.09045     718.8049     510.1271
   1422.07520     719.0844     509.7640   1422.07520     719.0844     509.7640
   1422.05994     717.7188     509.7484   1422.05994     717.7188     509.7484
   1422.04468     718.4180     507.5911   1422.04468     718.4180     507.5911
   1422.02942     718.1675     506.2102   1422.02942     718.1675     506.2102
   1422.01416     718.1447     506.7950   1422.01416     718.1447     506.7950
   1421.99890     717.9581     505.2463   1421.99890     717.9581     505.2463
   1421.98364     717.8285     504.2769   1421.98364     717.8285     504.2769
   1421.96838     718.0678     503.3221   1421.96838     718.0678     503.3221
   1421.95312     718.7626     502.6245   1421.95312     718.7626     502.6245
   1421.93787     717.5978     502.3931   1421.93787     717.5978     502.3931
   1421.92261     716.8186     500.9381   1421.92261     716.8186     500.9381
   1421.90735     718.4901     500.5630   1421.90735     718.4901     500.5630
   1421.89209     717.5794     499.9403   1421.89209     717.5794     499.9403
   1421.87683     717.2825     498.8290   1421.87683     717.2825     498.8290
   1421.86157     717.7337     497.6711   1421.86157     717.7337     497.6711
   1421.84631     718.0862     496.1343   1421.84631     718.0862     496.1343
   1421.83105     716.5676     495.0247   1421.83105     716.5676     495.0247
   1421.81580     716.6616     494.9074   1421.81580     716.6616     494.9074
   1421.80054     718.0764     494.0576   1421.80054     718.0764     494.0576
   1421.78528     717.0514     493.5031   1421.78528     717.0514     493.5031
   1421.77002     717.7511     493.0900   1421.77002     717.7511     493.0900
   1421.75476     717.5807     490.6334   1421.75476     717.5807     490.6334
   1421.73950     717.8762     490.8241   1421.73950     717.8762     490.8241
   1421.72424     716.9370     490.2236   1421.72424     716.9370     490.2236
   1421.70898     717.6981     489.7788   1421.70898     717.6981     489.7788
   1421.69373     716.9387     487.6981   1421.69373     716.9387     487.6981
   1421.67847     716.1786     487.3531   1421.67847     716.1786     487.3531
   1421.66321     716.9174     486.7183   1421.66321     716.9174     486.7183
   1421.64795     715.7363     486.6403   1421.64795     715.7363     486.6403
   1421.63269     716.3377     485.6047   1421.63269     716.3377     485.6047
   1421.61743     716.5852     483.4038   1421.61743     716.5852     483.4038
   1421.60217     717.1028     483.7844   1421.60217     717.1028     483.7844
   1421.58691     715.8110     481.5297   1421.58691     715.8110     481.5297
   1421.57166     716.0682     480.8865   1421.57166     716.0682     480.8865
   1421.55640     716.4230     480.7137   1421.55640     716.4230     480.7137
   1421.54114     715.6999     480.3104   1421.54114     715.6999     480.3104
   1421.52588     715.7311     478.5191   1421.52588     715.7311     478.5191
   1421.51062     716.3707     478.0916   1421.51062     716.3707     478.0916
   1421.49536     716.2150     477.5968   1421.49536     716.2150     477.5968
   1421.48010     714.5546     475.8627   1421.48010     714.5546     475.8627
   1421.46484     716.1705     475.5062   1421.46484     716.1705     475.5062
   1421.44958     716.5972     475.5388   1421.44958     716.5972     475.5388
   1421.43433     715.2975     474.0676   1421.43433     715.2975     474.0676
   1421.41907     716.2578     472.5119   1421.41907     716.2578     472.5119
   1421.40381     715.3229     471.5331   1421.40381     715.3229     471.5331
   1421.38855     714.1592     471.5581   1421.38855     714.1592     471.5581
   1421.37329     715.9446     470.7648   1421.37329     715.9446     470.7648
   1421.35803     714.5355     469.2643   1421.35803     714.5355     469.2643
   1421.34277     715.0298     469.6206   1421.34277     715.0298     469.6206
   1421.32751     714.8513     467.9414   1421.32751     714.8513     467.9414
   1421.31226     714.0776     467.2570   1421.31226     714.0776     467.2570
   1421.29700     713.8282     466.1322   1421.29700     713.8282     466.1322
   1421.28174     713.7513     464.8979   1421.28174     713.7513     464.8979
   1421.26648     713.6251     465.0049   1421.26648     713.6251     465.0049
   1421.25122     713.2217     463.6708   1421.25122     713.2217     463.6708
   1421.23596     713.7704     463.2245   1421.23596     713.7704     463.2245
   1421.22070     712.5702     462.4809   1421.22070     712.5702     462.4809
   1421.20544     713.4409     460.9328   1421.20544     713.4409     460.9328
   1421.19019     713.4504     460.8270   1421.19019     713.4504     460.8270
   1421.17493     713.7861     459.8334   1421.17493     713.7861     459.8334
   1421.15967     712.1697     460.1457   1421.15967     712.1697     460.1457
   1421.14441     713.1641     458.0591   1421.14441     713.1641     458.0591
   1421.12915     712.7144     458.0079   1421.12915     712.7144     458.0079
   1421.11389     712.6189     457.2079   1421.11389     712.6189     457.2079
   1421.09863     713.1323     456.0582   1421.09863     713.1323     456.0582
   1421.08337     712.4216     455.2438   1421.08337     712.4216     455.2438
   1421.06812     712.9250     454.8823   1421.06812     712.9250     454.8823
   1421.05286     712.7950     453.6961   1421.05286     712.7950     453.6961
   1421.03760     712.9496     453.6944   1421.03760     712.9496     453.6944
   1421.02234     711.6105     451.8452   1421.02234     711.6105     451.8452
   1421.00708     711.7355     451.6834   1421.00708     711.7355     451.6834
   1420.99182     713.1926     450.8965   1420.99182     713.1926     450.8965
   1420.97656     712.6777     450.4732   1420.97656     712.6777     450.4732
   1420.96130     713.6274     449.9079   1420.96130     713.6274     449.9079
   1420.94604     713.4811     450.4129   1420.94604     713.4811     450.4129
   1420.93079     713.8587     450.3561   1420.93079     713.8587     450.3561
   1420.91553     715.0359     448.5725   1420.91553     715.0359     448.5725
   1420.90027     715.7051     448.7443   1420.90027     715.7051     448.7443
   1420.88501     716.4304     447.3690   1420.88501     716.4304     447.3690
   1420.86975     714.6481     446.7791   1420.86975     714.6481     446.7791
   1420.85449     715.1035     446.4200   1420.85449     715.1035     446.4200
   1420.83923     714.1814     445.5455   1420.83923     714.1814     445.5455
   1420.82397     715.3391     444.7248   1420.82397     715.3391     444.7248
   1420.80872     715.6717     444.3360   1420.80872     715.6717     444.3360
   1420.79346     715.1400     443.9661   1420.79346     715.1400     443.9661
   1420.77820     714.4872     444.0564   1420.77820     714.4872     444.0564
   1420.76294     715.9671     442.8465   1420.76294     715.9671     442.8465
   1420.74768     717.2611     442.5427   1420.74768     717.2611     442.5427
   1420.73242     718.0340     442.5491   1420.73242     718.0340     442.5491
   1420.71716     720.4003     442.5621   1420.71716     720.4003     442.5621
   1420.70190     724.4645     444.5964   1420.70190     724.4645     444.5964
   1420.68665     728.9598     447.0770   1420.68665     728.9598     447.0770
   1420.67139     738.0618     452.0974   1420.67139     738.0618     452.0974
   1420.65613     758.9628     462.8731   1420.65613     758.9628     462.8731
   1420.64087     781.3376     477.0793   1420.64087     781.3376     477.0793
   1420.62561     810.3260     493.5676   1420.62561     810.3260     493.5676
   1420.61035     827.5378     501.5377   1420.61035     827.5378     501.5377
   1420.59509     834.7480     506.0203   1420.59509     834.7480     506.0203
   1420.57983     865.0098     522.2288   1420.57983     865.0098     522.2288
   1420.56458     913.1201     550.7738   1420.56458     913.1201     550.7738
   1420.54932     990.6989     594.0251   1420.54932     990.6989     594.0251
   1420.53406    1162.0649     694.7029   1420.53406    1162.0649     694.7029
   1420.51880    1378.7910     822.0519   1420.51880    1378.7910     822.0519
   1420.50354    1691.5883    1000.8217   1420.50354    1691.5883    1000.8217
   1420.48828    1778.5350    1046.5999   1420.48828    1778.5350    1046.5999
   1420.47302    1725.5607    1015.7177   1420.47302    1725.5607    1015.7177
   1420.45776    1674.5865     985.7047   1420.45776    1674.5865     985.7047
   1420.44250    1678.7948     985.7302   1420.44250    1678.7948     985.7302
   1420.42725    1759.4207    1032.9344   1420.42725    1759.4207    1032.9344
   1420.41199    1797.5778    1051.3138   1420.41199    1797.5778    1051.3138
   1420.39673    1746.7990    1019.4227   1420.39673    1746.7990    1019.4227
   1420.38147    1901.1909    1108.6310   1420.38147    1901.1909    1108.6310
   1420.36621    1919.3470    1119.1780   1420.36621    1919.3470    1119.1780
   1420.35095    1749.3755    1020.2547   1420.35095    1749.3755    1020.2547
   1420.33569    1529.7979     892.5341   1420.33569    1529.7979     892.5341
   1420.32043    1497.2513     871.7383   1420.32043    1497.2513     871.7383
   1420.30518    1445.5498     841.1174   1420.30518    1445.5498     841.1174
   1420.28992    1151.7949     671.7877   1420.28992    1151.7949     671.7877
   1420.27466     896.1845     525.3236   1420.27466     896.1845     525.3236
   1420.25940     797.7559     468.6743   1420.25940     797.7559     468.6743
   1420.24414     754.9595     443.9973   1420.24414     754.9595     443.9973
   1420.22888     734.9980     431.7491   1420.22888     734.9980     431.7491
   1420.21362     724.5676     424.5392   1420.21362     724.5676     424.5392
   1420.19836     716.0517     419.9803   1420.19836     716.0517     419.9803
   1420.18311     712.4563     417.5634   1420.18311     712.4563     417.5634
   1420.16785     709.0909     414.8295   1420.16785     709.0909     414.8295
   1420.15259     708.0896     413.6883   1420.15259     708.0896     413.6883
   1420.13733     704.8991     411.2178   1420.13733     704.8991     411.2178
   1420.12207     703.7789     410.1738   1420.12207     703.7789     410.1738
   1420.10681     703.0095     408.4120   1420.10681     703.0095     408.4120
   1420.09155     700.6483     408.1778   1420.09155     700.6483     408.1778
   1420.07629     700.7549     406.4721   1420.07629     700.7549     406.4721
   1420.06104     699.6854     405.7359   1420.06104     699.6854     405.7359
   1420.04578     699.7330     404.3387   1420.04578     699.7330     404.3387
   1420.03052     699.4573     404.5568   1420.03052     699.4573     404.5568
   1420.01526     699.9761     404.2591   1420.01526     699.9761     404.2591
   1420.00000     700.3427     404.5324   1420.00000     700.3427     404.5324
   1419.98474     700.7094     404.8058   1419.98474     700.7094     404.8058
   1419.96948     701.5396     402.6972   1419.96948     701.5396     402.6972
   1419.95422     697.5621     400.6120   1419.95422     697.5621     400.6120
   1419.93896     698.1580     399.2376   1419.93896     698.1580     399.2376
   1419.92371     698.1406     399.5867   1419.92371     698.1406     399.5867
   1419.90845     696.7690     398.4592   1419.90845     696.7690     398.4592
   1419.89319     697.4946     398.0212   1419.89319     697.4946     398.0212
   1419.87793     697.1280     397.5826   1419.87793     697.1280     397.5826
   1419.86267     697.0706     396.0351   1419.86267     697.0706     396.0351
   1419.84741     697.5485     396.3658   1419.84741     697.5485     396.3658
   1419.83215     696.3774     396.4577   1419.83215     696.3774     396.4577
   1419.81689     697.3069     395.2884   1419.81689     697.3069     395.2884
   1419.80164     696.5703     394.5771   1419.80164     696.5703     394.5771
   1419.78638     696.1210     393.7081   1419.78638     696.1210     393.7081
   1419.77112     696.9388     393.5237   1419.77112     696.9388     393.5237
   1419.75586     695.7004     392.4290   1419.75586     695.7004     392.4290
   1419.74060     696.6208     392.5930   1419.74060     696.6208     392.5930
   1419.72534     696.6638     392.6154   1419.72534     696.6638     392.6154
   1419.71008     696.9989     391.7240   1419.71008     696.9989     391.7240
   1419.69482     697.5507     391.2473   1419.69482     697.5507     391.2473
   1419.67957     697.2339     391.0901   1419.67957     697.2339     391.0901
   1419.66431     697.1631     390.6029   1419.66431     697.1631     390.6029
   1419.64905     696.2943     390.3714   1419.64905     696.2943     390.3714
   1419.63379     697.0588     389.2812   1419.63379     697.0588     389.2812
   1419.61853     697.3586     388.7763   1419.61853     697.3586     388.7763
   1419.60327     698.1204     388.8469   1419.60327     698.1204     388.8469
   1419.58801     697.2047     388.6320   1419.58801     697.2047     388.6320
   1419.57275     697.9152     387.8104   1419.57275     697.9152     387.8104
   1419.55750     698.8105     387.8268   1419.55750     698.8105     387.8268
   1419.54224     698.0884     387.3126   1419.54224     698.0884     387.3126
   1419.52698     697.6835     386.9894   1419.52698     697.6835     386.9894
   1419.51172     697.7219     386.9267   1419.51172     697.7219     386.9267
   1419.49646     697.8469     386.5826   1419.49646     697.8469     386.5826
   1419.48120     697.5662     386.2677   1419.48120     697.5662     386.2677
   1419.46594     697.8956     386.1870   1419.46594     697.8956     386.1870
   1419.45068     698.2062     385.2190   1419.45068     698.2062     385.2190
   1419.43542     699.0377     385.0379   1419.43542     699.0377     385.0379
   1419.42017     699.2680     385.0111   1419.42017     699.2680     385.0111
   1419.40491     700.1497     385.0784   1419.40491     700.1497     385.0784
   1419.38965     699.4235     384.4666   1419.38965     699.4235     384.4666
   1419.37439     699.5226     384.7969   1419.37439     699.5226     384.7969
   1419.35913     699.7463     383.4191   1419.35913     699.7463     383.4191
   1419.34387     699.6485     384.3909   1419.34387     699.6485     384.3909
   1419.32861     699.3992     383.7093   1419.32861     699.3992     383.7093
   1419.31335     699.5809     382.9504   1419.31335     699.5809     382.9504
   1419.29810     700.5285     383.4996   1419.29810     700.5285     383.4996
   1419.28284     700.1580     383.4394   1419.28284     700.1580     383.4394
   1419.26758     701.3657     383.3460   1419.26758     701.3657     383.3460
   1419.25232     701.0480     382.5540   1419.25232     701.0480     382.5540
   1419.23706     700.6562     383.0053   1419.23706     700.6562     383.0053
   1419.22180     701.6835     382.2493   1419.22180     701.6835     382.2493
   1419.20654     701.3494     382.5808   1419.20654     701.3494     382.5808
   1419.19128     701.2617     382.2814   1419.19128     701.2617     382.2814
   1419.17603     702.6657     382.3769   1419.17603     702.6657     382.3769
   1419.16077     701.1547     382.1318   1419.16077     701.1547     382.1318
   1419.14551     702.8478     381.7385   1419.14551     702.8478     381.7385
   1419.13025     703.2434     381.7396   1419.13025     703.2434     381.7396
   1419.11499     702.8856     381.2942   1419.11499     702.8856     381.2942
   1419.09973     703.8613     381.1237   1419.09973     703.8613     381.1237
   1419.08447     702.7632     381.9378   1419.08447     702.7632     381.9378
   1419.06921     703.7796     380.9202   1419.06921     703.7796     380.9202
   1419.05396     704.2324     381.1448   1419.05396     704.2324     381.1448
   1419.03870     706.0447     381.5630   1419.03870     706.0447     381.5630
   1419.02344     704.1053     381.3627   1419.02344     704.1053     381.3627
   1419.00818     704.7672     381.3973   1419.00818     704.7672     381.3973
   1418.99292     706.2266     380.9834   1418.99292     706.2266     380.9834
   1418.97766     706.9047     380.7359   1418.97766     706.9047     380.7359
   1418.96240     706.1533     381.3071   1418.96240     706.1533     381.3071
   1418.94714     707.6319     381.5676   1418.94714     707.6319     381.5676
   1418.93188     707.6205     380.9653   1418.93188     707.6205     380.9653
   1418.91663     707.5475     381.1217   1418.91663     707.5475     381.1217
   1418.90137     706.5694     381.3525   1418.90137     706.5694     381.3525
   1418.88611     709.6126     381.4440   1418.88611     709.6126     381.4440
   1418.87085     708.0960     381.5573   1418.87085     708.0960     381.5573
   1418.85559     708.7117     380.9264   1418.85559     708.7117     380.9264
   1418.84033     709.3985     381.3504   1418.84033     709.3985     381.3504
   1418.82507     709.4698     381.8979   1418.82507     709.4698     381.8979
   1418.80981     711.6287     380.9647   1418.80981     711.6287     380.9647
   1418.79456     710.1949     381.6349   1418.79456     710.1949     381.6349
   1418.77930     710.4614     382.6317   1418.77930     710.4614     382.6317
   1418.76404     711.6450     381.8662   1418.76404     711.6450     381.8662
   1418.74878     712.4268     381.9155   1418.74878     712.4268     381.9155
   1418.73352     713.1746     382.0999   1418.73352     713.1746     382.0999
   1418.71826     712.2950     382.5032   1418.71826     712.2950     382.5032
   1418.70300     712.9056     382.9129   1418.70300     712.9056     382.9129
   1418.68774     714.6284     382.9601   1418.68774     714.6284     382.9601
   1418.67249     712.9157     382.9963   1418.67249     712.9157     382.9963
   1418.65723     715.2569     383.5245   1418.65723     715.2569     383.5245
   1418.64197     714.7438     383.5768   1418.64197     714.7438     383.5768
   1418.62671     714.8515     383.6441   1418.62671     714.8515     383.6441
   1418.61145     715.6194     384.1496   1418.61145     715.6194     384.1496
   1418.59619     716.5356     384.1492   1418.59619     716.5356     384.1492
   1418.58093     717.3341     384.3782   1418.58093     717.3341     384.3782
   1418.56567     717.0519     385.4653   1418.56567     717.0519     385.4653
   1418.55042     717.5686     385.3847   1418.55042     717.5686     385.3847
   1418.53516     718.7189     385.3116   1418.53516     718.7189     385.3116
   1418.51990     719.7311     385.4407   1418.51990     719.7311     385.4407
   1418.50464     720.7139     385.7581   1418.50464     720.7139     385.7581
   1418.48938     719.2538     386.5101   1418.48938     719.2538     386.5101
   1418.47412     719.9377     386.9034   1418.47412     719.9377     386.9034
   1418.45886     721.3922     386.8330   1418.45886     721.3922     386.8330
   1418.44360     722.2836     387.8219   1418.44360     722.2836     387.8219
   1418.42834     722.8982     387.5928   1418.42834     722.8982     387.5928
   1418.41309     722.3151     387.7123   1418.41309     722.3151     387.7123
   1418.39783     722.8140     388.0222   1418.39783     722.8140     388.0222
   1418.38257     724.1132     388.6318   1418.38257     724.1132     388.6318
   1418.36731     724.6392     389.4273   1418.36731     724.6392     389.4273
   1418.35205     724.9537     389.8769   1418.35205     724.9537     389.8769
   1418.33679     726.3168     390.2031   1418.33679     726.3168     390.2031
   1418.32153     725.5198     390.3219   1418.32153     725.5198     390.3219
   1418.30627     725.2621     390.6621   1418.30627     725.2621     390.6621
   1418.29102     727.2385     390.4742   1418.29102     727.2385     390.4742
   1418.27576     727.7656     392.2224   1418.27576     727.7656     392.2224
   1418.26050     729.4231     392.5867   1418.26050     729.4231     392.5867
   1418.24524     729.3926     392.6451   1418.24524     729.3926     392.6451
   1418.22998     730.1662     393.0789   1418.22998     730.1662     393.0789
   1418.21472     731.3425     393.4284   1418.21472     731.3425     393.4284
   1418.19946     730.2460     393.9125   1418.19946     730.2460     393.9125
   1418.18420     730.5093     394.5638   1418.18420     730.5093     394.5638
   1418.16895     732.5320     395.1982   1418.16895     732.5320     395.1982
   1418.15369     731.9894     395.3321   1418.15369     731.9894     395.3321
   1418.13843     733.1328     396.2321   1418.13843     733.1328     396.2321
   1418.12317     732.7545     396.6705   1418.12317     732.7545     396.6705
   1418.10791     735.3314     397.0459   1418.10791     735.3314     397.0459
   1418.09265     735.3263     397.7698   1418.09265     735.3263     397.7698
   1418.07739     736.3913     398.6870   1418.07739     736.3913     398.6870
   1418.06213     736.4457     399.4010   1418.06213     736.4457     399.4010
   1418.04688     738.2651     399.7648   1418.04688     738.2651     399.7648
   1418.03162     738.6355     400.8836   1418.03162     738.6355     400.8836
   1418.01636     740.2566     400.3976   1418.01636     740.2566     400.3976
   1418.00110     740.0574     401.7721   1418.00110     740.0574     401.7721
   1417.98584     739.9868     401.6195   1417.98584     739.9868     401.6195
   1417.97058     740.5756     402.9427   1417.97058     740.5756     402.9427
   1417.95532     741.0536     403.2932   1417.95532     741.0536     403.2932
   1417.94006     740.9652     403.7431   1417.94006     740.9652     403.7431
   1417.92480     742.2282     405.3618   1417.92480     742.2282     405.3618
   1417.90955     743.1662     406.0880   1417.90955     743.1662     406.0880
   1417.89429     744.8045     406.1671   1417.89429     744.8045     406.1671
   1417.87903     744.4403     406.3191   1417.87903     744.4403     406.3191
   1417.86377     745.6379     406.9937   1417.86377     745.6379     406.9937
   1417.84851     746.2827     408.0618   1417.84851     746.2827     408.0618
   1417.83325     746.4474     409.0049   1417.83325     746.4474     409.0049
   1417.81799     746.0867     409.5728   1417.81799     746.0867     409.5728
   1417.80273     746.9349     410.9038   1417.80273     746.9349     410.9038
   1417.78748     750.1683     411.3754   1417.78748     750.1683     411.3754
   1417.77222     748.6288     411.8717   1417.77222     748.6288     411.8717
   1417.75696     750.7905     412.1693   1417.75696     750.7905     412.1693
   1417.74170     750.2762     413.8717   1417.74170     750.2762     413.8717
   1417.72644     751.4708     414.3839   1417.72644     751.4708     414.3839
   1417.71118     751.2333     414.9382   1417.71118     751.2333     414.9382
   1417.69592     753.2654     415.7191   1417.69592     753.2654     415.7191
   1417.68066     752.0286     416.7299   1417.68066     752.0286     416.7299
   1417.66541     753.8418     417.2410   1417.66541     753.8418     417.2410
   1417.65015     754.2895     418.0803   1417.65015     754.2895     418.0803
   1417.63489     755.3870     418.8857   1417.63489     755.3870     418.8857
   1417.61963     755.7616     419.5263   1417.61963     755.7616     419.5263
   1417.60437     757.1796     420.7849   1417.60437     757.1796     420.7849
   1417.58911     757.4793     421.4009   1417.58911     757.4793     421.4009
   1417.57385     757.4647     422.3088   1417.57385     757.4647     422.3088
   1417.55859     759.1763     423.0446   1417.55859     759.1763     423.0446
   1417.54333     758.0203     423.7091   1417.54333     758.0203     423.7091
   1417.52808     759.8492     424.9150   1417.52808     759.8492     424.9150
   1417.51282     759.2847     426.2322   1417.51282     759.2847     426.2322
   1417.49756     760.9357     426.5633   1417.49756     760.9357     426.5633
   1417.48230     762.9280     427.4099   1417.48230     762.9280     427.4099
   1417.46704     761.5020     428.9857   1417.46704     761.5020     428.9857
   1417.45178     762.8769     429.9556   1417.45178     762.8769     429.9556
   1417.43652     763.3476     430.8659   1417.43652     763.3476     430.8659
   1417.42126     764.0422     431.3890   1417.42126     764.0422     431.3890
   1417.40601     763.9705     432.7027   1417.40601     763.9705     432.7027
   1417.39075     764.2169     433.6100   1417.39075     764.2169     433.6100
   1417.37549     764.7504     433.9485   1417.37549     764.7504     433.9485
   1417.36023     766.7569     435.1571   1417.36023     766.7569     435.1571
   1417.34497     766.4001     436.2246   1417.34497     766.4001     436.2246
   1417.32971     767.1611     436.3454   1417.32971     767.1611     436.3454
   1417.31445     768.2568     437.4712   1417.31445     768.2568     437.4712
   1417.29919     769.2944     438.5621   1417.29919     769.2944     438.5621
   1417.28394     769.4283     440.1071   1417.28394     769.4283     440.1071
   1417.26868     769.2417     441.4257   1417.26868     769.2417     441.4257
   1417.25342     769.6235     441.8149   1417.25342     769.6235     441.8149
   1417.23816     771.4290     442.3498   1417.23816     771.4290     442.3498
   1417.22290     772.4489     443.7726   1417.22290     772.4489     443.7726
   1417.20764     772.6594     443.6566   1417.20764     772.6594     443.6566
   1417.19238     772.1997     445.5881   1417.19238     772.1997     445.5881
   1417.17712     772.8464     446.5440   1417.17712     772.8464     446.5440
   1417.16187     773.0912     446.8792   1417.16187     773.0912     446.8792
   1417.14661     774.3409     448.3286   1417.14661     774.3409     448.3286
   1417.13135     775.1130     449.3975   1417.13135     775.1130     449.3975
   1417.11609     774.5974     450.0492   1417.11609     774.5974     450.0492
   1417.10083     774.5634     451.1428   1417.10083     774.5634     451.1428
   1417.08557     775.3210     452.6174   1417.08557     775.3210     452.6174
   1417.07031     776.4846     452.6652   1417.07031     776.4846     452.6652
   1417.05505     776.3990     453.5350   1417.05505     776.3990     453.5350
   1417.03979     777.7662     455.1533   1417.03979     777.7662     455.1533
   1417.02454     777.4551     455.8539   1417.02454     777.4551     455.8539
   1417.00928     777.7010     456.6501   1417.00928     777.7010     456.6501
   1416.99402     779.1082     457.6482   1416.99402     779.1082     457.6482
   1416.97876     778.5247     458.5645   1416.97876     778.5247     458.5645
   1416.96350     779.0322     459.4431   1416.96350     779.0322     459.4431
   1416.94824     780.0019     460.7605   1416.94824     780.0019     460.7605
   1416.93298     780.8091     461.4355   1416.93298     780.8091     461.4355
   1416.91772     780.2492     462.1012   1416.91772     780.2492     462.1012
   1416.90247     781.5743     463.2227   1416.90247     781.5743     463.2227
   1416.88721     781.8036     463.4579   1416.88721     781.8036     463.4579
   1416.87195     781.8833     465.0728   1416.87195     781.8833     465.0728
   1416.85669     782.1858     466.1983   1416.85669     782.1858     466.1983
   1416.84143     781.9719     468.2556   1416.84143     781.9719     468.2556
   1416.82617     782.0361     467.6198   1416.82617     782.0361     467.6198
   1416.81091     782.4987     469.0762   1416.81091     782.4987     469.0762
   1416.79565     782.8102     469.8012   1416.79565     782.8102     469.8012
   1416.78040     783.1122     469.7827   1416.78040     783.1122     469.7827
   1416.76514     782.4968     471.5529   1416.76514     782.4968     471.5529
   1416.74988     783.6066     472.2231   1416.74988     783.6066     472.2231
   1416.73462     784.0189     472.4962   1416.73462     784.0189     472.4962
   1416.71936     784.0031     474.0279   1416.71936     784.0031     474.0279
   1416.70410     784.5026     474.5690   1416.70410     784.5026     474.5690
   1416.68884     785.8621     475.0538   1416.68884     785.8621     475.0538
   1416.67358     784.8469     476.4559   1416.67358     784.8469     476.4559
   1416.65833     784.0238     476.9338   1416.65833     784.0238     476.9338
   1416.64307     784.0458     478.2453   1416.64307     784.0458     478.2453
   1416.62781     784.7587     478.5642   1416.62781     784.7587     478.5642
   1416.61255     785.4348     479.1097   1416.61255     785.4348     479.1097
   1416.59729     785.3203     479.9793   1416.59729     785.3203     479.9793
   1416.58203     786.4540     480.8455   1416.58203     786.4540     480.8455
   1416.56677     785.5216     481.4839   1416.56677     785.5216     481.4839
   1416.55151     785.4215     481.6251   1416.55151     785.4215     481.6251
   1416.53625     786.8332     482.7769   1416.53625     786.8332     482.7769
   1416.52100     786.2369     483.3214   1416.52100     786.2369     483.3214
   1416.50574     784.5011     484.5493   1416.50574     784.5011     484.5493
   1416.49048     785.2872     484.6906   1416.49048     785.2872     484.6906
   1416.47522     785.9031     484.8572   1416.47522     785.9031     484.8572
   1416.45996     786.0621     485.9392   1416.45996     786.0621     485.9392
   1416.44470     786.0355     486.3335   1416.44470     786.0355     486.3335
   1416.42944     785.1168     487.7636   1416.42944     785.1168     487.7636
   1416.41418     784.0900     487.8092   1416.41418     784.0900     487.8092
   1416.39893     785.4062     488.0446   1416.39893     785.4062     488.0446
   1416.38367     785.6982     488.8367   1416.38367     785.6982     488.8367
   1416.36841     785.5815     489.8766   1416.36841     785.5815     489.8766
   1416.35315     784.3644     490.3397   1416.35315     784.3644     490.3397
   1416.33789     785.3917     491.0247   1416.33789     785.3917     491.0247
   1416.32263     783.6913     490.5783   1416.32263     783.6913     490.5783
   1416.30737     784.0588     491.4359   1416.30737     784.0588     491.4359
   1416.29211     784.1475     491.4229   1416.29211     784.1475     491.4229
   1416.27686     783.0137     491.3919   1416.27686     783.0137     491.3919
   1416.26160     783.5511     492.9035   1416.26160     783.5511     492.9035
   1416.24634     783.3666     493.2510   1416.24634     783.3666     493.2510
   1416.23108     782.9121     493.4560   1416.23108     782.9121     493.4560
   1416.21582     784.1119     492.8964   1416.21582     784.1119     492.8964
   1416.20056     783.4669     494.2688   1416.20056     783.4669     494.2688
   1416.18530     783.1520     494.4717   1416.18530     783.1520     494.4717
   1416.17004     783.3085     494.2617   1416.17004     783.3085     494.2617
   1416.15479     781.6604     495.0118   1416.15479     781.6604     495.0118
   1416.13953     782.4855     495.1908   1416.13953     782.4855     495.1908
   1416.12427     781.1208     496.1041   1416.12427     781.1208     496.1041
   1416.10901     781.5418     495.5983   1416.10901     781.5418     495.5983
   1416.09375     781.6349     496.1564   1416.09375     781.6349     496.1564
   1416.07849     780.7739     495.9761   1416.07849     780.7739     495.9761
   1416.06323     780.7616     496.2620   1416.06323     780.7616     496.2620
   1416.04797     779.2178     497.3527   1416.04797     779.2178     497.3527
   1416.03271     778.5112     496.9655   1416.03271     778.5112     496.9655
   1416.01746     779.7422     497.3199   1416.01746     779.7422     497.3199
   1416.00220     778.3762     497.8508   1416.00220     778.3762     497.8508
   1415.98694     777.7447     497.1030   1415.98694     777.7447     497.1030
   1415.97168     777.3254     498.2820   1415.97168     777.3254     498.2820
   1415.95642     777.0051     498.0527   1415.95642     777.0051     498.0527
   1415.94116     776.2662     497.1215   1415.94116     776.2662     497.1215
   1415.92590     775.5936     498.2531   1415.92590     775.5936     498.2531
   1415.91064     774.6971     497.8794   1415.91064     774.6971     497.8794
   1415.89539     775.5613     498.2359   1415.89539     775.5613     498.2359
   1415.88013     774.2733     498.7787   1415.88013     774.2733     498.7787
   1415.86487     774.3178     498.4221   1415.86487     774.3178     498.4221
   1415.84961     772.4265     498.0201   1415.84961     772.4265     498.0201
   1415.83435     773.5035     499.2716   1415.83435     773.5035     499.2716
   1415.81909     774.0187     499.2103   1415.81909     774.0187     499.2103
   1415.80383     770.9986     498.1075   1415.80383     770.9986     498.1075
   1415.78857     771.0223     498.5111   1415.78857     771.0223     498.5111
   1415.77332     769.8921     497.8822   1415.77332     769.8921     497.8822
   1415.75806     769.4045     497.9502   1415.75806     769.4045     497.9502
   1415.74280     768.8547     497.5154   1415.74280     768.8547     497.5154
   1415.72754     769.0604     498.2082   1415.72754     769.0604     498.2082
   1415.71228     767.5726     498.4597   1415.71228     767.5726     498.4597
   1415.69702     766.3833     497.6514   1415.69702     766.3833     497.6514
   1415.68176     765.9874     497.3724   1415.68176     765.9874     497.3724
   1415.66650     765.5128     497.1218   1415.66650     765.5128     497.1218
   1415.65125     765.8284     498.0851   1415.65125     765.8284     498.0851
   1415.63599     763.7942     498.1088   1415.63599     763.7942     498.1088
   1415.62073     763.6689     497.3256   1415.62073     763.6689     497.3256
   1415.60547     762.1332     497.9950   1415.60547     762.1332     497.9950
   1415.59021     761.6340     497.7277   1415.59021     761.6340     497.7277
   1415.57495     761.1774     497.4488   1415.57495     761.1774     497.4488
   1415.55969     760.6752     497.4349   1415.55969     760.6752     497.4349
   1415.54443     758.6645     497.3516   1415.54443     758.6645     497.3516
   1415.52917     758.2946     497.6440   1415.52917     758.2946     497.6440
   1415.51392     757.7550     497.2943   1415.51392     757.7550     497.2943
   1415.49866     757.6174     497.3295   1415.49866     757.6174     497.3295
   1415.48340     756.6869     496.6776   1415.48340     756.6869     496.6776
   1415.46814     754.6035     496.1531   1415.46814     754.6035     496.1531
   1415.45288     755.1159     496.3112   1415.45288     755.1159     496.3112
   1415.43762     754.4338     496.5147   1415.43762     754.4338     496.5147
   1415.42236     752.8358     495.7605   1415.42236     752.8358     495.7605
   1415.40710     751.6296     495.7308   1415.40710     751.6296     495.7308
   1415.39185     751.1387     496.1443   1415.39185     751.1387     496.1443
   1415.37659     750.4835     494.7585   1415.37659     750.4835     494.7585
   1415.36133     749.0982     495.2893   1415.36133     749.0982     495.2893
   1415.34607     747.2689     494.3516   1415.34607     747.2689     494.3516
   1415.33081     746.5245     494.9088   1415.33081     746.5245     494.9088
   1415.31555     746.4556     494.6226   1415.31555     746.4556     494.6226
   1415.30029     744.9272     493.9271   1415.30029     744.9272     493.9271
   1415.28503     743.4554     494.3810   1415.28503     743.4554     494.3810
   1415.26978     742.2323     493.9184   1415.26978     742.2323     493.9184
   1415.25452     741.6651     492.6086   1415.25452     741.6651     492.6086
   1415.23926     740.4468     492.8846   1415.23926     740.4468     492.8846
   1415.22400     739.0236     492.1997   1415.22400     739.0236     492.1997
   1415.20874     738.4710     491.7201   1415.20874     738.4710     491.7201
   1415.19348     738.5585     491.7418   1415.19348     738.5585     491.7418
   1415.17822     736.6349     491.0400   1415.17822     736.6349     491.0400
   1415.16296     735.8032     491.6622   1415.16296     735.8032     491.6622
   1415.14771     732.8007     490.1504   1415.14771     732.8007     490.1504
   1415.13245     732.3663     490.1030   1415.13245     732.3663     490.1030
   1415.11719     731.4519     489.9146   1415.11719     731.4519     489.9146
   1415.10193     729.6451     489.4652   1415.10193     729.6451     489.4652
   1415.08667     728.5464     488.6456   1415.08667     728.5464     488.6456
   1415.07141     727.2162     488.3361   1415.07141     727.2162     488.3361
   1415.05615     726.6996     488.0528   1415.05615     726.6996     488.0528
   1415.04089     725.0135     486.4668   1415.04089     725.0135     486.4668
   1415.02563     723.1867     486.4355   1415.02563     723.1867     486.4355
   1415.01038     722.8750     486.2366   1415.01038     722.8750     486.2366
   1414.99512     720.1617     485.8075   1414.99512     720.1617     485.8075
   1414.97986     720.9988     485.4633   1414.97986     720.9988     485.4633
   1414.96460     718.3480     484.1985   1414.96460     718.3480     484.1985
   1414.94934     717.4954     484.0188   1414.94934     717.4954     484.0188
   1414.93408     714.4846     484.1414   1414.93408     714.4846     484.1414
   1414.91882     714.0406     483.0922   1414.91882     714.0406     483.0922
   1414.90356     713.1320     482.4453   1414.90356     713.1320     482.4453
   1414.88831     711.1276     481.9804   1414.88831     711.1276     481.9804
   1414.87305     708.7806     481.1704   1414.87305     708.7806     481.1704
   1414.85779     707.5269     480.5309   1414.85779     707.5269     480.5309
   1414.84253     705.9733     480.2627   1414.84253     705.9733     480.2627
   1414.82727     704.6959     479.4355   1414.82727     704.6959     479.4355
   1414.81201     703.1206     479.3412   1414.81201     703.1206     479.3412
   1414.79675     701.3210     477.5556   1414.79675     701.3210     477.5556
   1414.78149     699.8304     477.0880   1414.78149     699.8304     477.0880
   1414.76624     698.4057     476.5771   1414.76624     698.4057     476.5771
   1414.75098     697.2462     475.2827   1414.75098     697.2462     475.2827
   1414.73572     695.8336     475.3376   1414.73572     695.8336     475.3376
   1414.72046     692.7058     474.3365   1414.72046     692.7058     474.3365
   1414.70520     692.0128     472.9557   1414.70520     692.0128     472.9557
   1414.68994     690.8763     472.5812   1414.68994     690.8763     472.5812
   1414.67468     689.2495     471.7966   1414.67468     689.2495     471.7966
   1414.65942     685.7767     470.3152   1414.65942     685.7767     470.3152
   1414.64417     683.9052     469.7018   1414.64417     683.9052     469.7018
   1414.62891     682.9634     468.9037   1414.62891     682.9634     468.9037
   1414.61365     681.6339     468.3580   1414.61365     681.6339     468.3580
   1414.59839     677.6812     467.0143   1414.59839     677.6812     467.0143
   1414.58313     677.3796     466.3977   1414.58313     677.3796     466.3977
   1414.56787     675.9814     465.3834   1414.56787     675.9814     465.3834
   1414.55261     673.1111     464.5659   1414.55261     673.1111     464.5659
   1414.53735     670.1418     463.3076   1414.53735     670.1418     463.3076
   1414.52209     668.7679     462.5826   1414.52209     668.7679     462.5826
   1414.50684     667.8785     462.4727   1414.50684     667.8785     462.4727
   1414.49158     665.3436     460.4392   1414.49158     665.3436     460.4392
   1414.47632     662.7517     459.4680   1414.47632     662.7517     459.4680
   1414.46106     659.8708     458.0686   1414.46106     659.8708     458.0686
   1414.44580     658.3242     457.0438   1414.44580     658.3242     457.0438
   1414.43054     656.5061     455.7560   1414.43054     656.5061     455.7560
   1414.41528     654.8472     455.7257   1414.41528     654.8472     455.7257
   1414.40002     651.9677     454.3917   1414.40002     651.9677     454.3917
   1414.38477     651.1544     452.9836   1414.38477     651.1544     452.9836
   1414.36951     647.9040     451.5261   1414.36951     647.9040     451.5261
   1414.35425     645.8022     449.7797   1414.35425     645.8022     449.7797
   1414.33899     643.7363     449.7421   1414.33899     643.7363     449.7421
   1414.32373     640.7468     448.0086   1414.32373     640.7468     448.0086
   1414.30847     639.2196     447.3890   1414.30847     639.2196     447.3890
   1414.29321     636.2741     446.2333   1414.29321     636.2741     446.2333
   1414.27795     634.5983     444.1660   1414.27795     634.5983     444.1660
   1414.26270     631.5353     443.5555   1414.26270     631.5353     443.5555
   1414.24744     630.5174     442.2981   1414.24744     630.5174     442.2981
   1414.23218     627.3821     440.0837   1414.23218     627.3821     440.0837
   1414.21692     625.2330     439.9797   1414.21692     625.2330     439.9797
   1414.20166     622.5925     438.8653   1414.20166     622.5925     438.8653
   1414.18640     619.6293     437.3017   1414.18640     619.6293     437.3017
   1414.17114     618.2469     436.0314   1414.17114     618.2469     436.0314
   1414.15588     615.7635     434.3354   1414.15588     615.7635     434.3354
   1414.14062     612.9078     432.2120   1414.14062     612.9078     432.2120
   1414.12537     610.6569     431.0988   1414.12537     610.6569     431.0988
   1414.11011     608.9131     430.2358   1414.11011     608.9131     430.2358
   1414.09485     605.4233     428.8548   1414.09485     605.4233     428.8548
   1414.07959     603.0251     427.7580   1414.07959     603.0251     427.7580
   1414.06433     600.7128     426.1188   1414.06433     600.7128     426.1188
   1414.04907     598.4280     424.3086   1414.04907     598.4280     424.3086
   1414.03381     594.8325     423.1395   1414.03381     594.8325     423.1395
   1414.01855     593.7274     421.7240   1414.01855     593.7274     421.7240
   1414.00330     609.3359     427.9074   1414.00330     609.3359     427.9074
   1413.98804     588.7192     419.9286   1413.98804     588.7192     419.9286
   1413.97278     585.3192     417.5992   1413.97278     585.3192     417.5992
   1413.95752     582.6246     416.3645   1413.95752     582.6246     416.3645
   1413.94226     579.8767     415.3393   1413.94226     579.8767     415.3393
   1413.92700     577.1750     412.9979   1413.92700     577.1750     412.9979
   1413.91174     574.3438     411.3310   1413.91174     574.3438     411.3310
   1413.89648     571.1646     410.0701   1413.89648     571.1646     410.0701
   1413.88123     567.9845     408.6383   1413.88123     567.9845     408.6383
   1413.86597     565.8114     406.5307   1413.86597     565.8114     406.5307
   1413.85071     563.5208     405.6064   1413.85071     563.5208     405.6064
   1413.83545     560.6887     403.3848   1413.83545     560.6887     403.3848
   1413.82019     557.7607     401.9781   1413.82019     557.7607     401.9781
   1413.80493     556.1501     400.5107   1413.80493     556.1501     400.5107
   1413.78967     551.8762     399.2933   1413.78967     551.8762     399.2933
   1413.77441     549.5542     397.5013   1413.77441     549.5542     397.5013
   1413.75916     547.2852     395.9828   1413.75916     547.2852     395.9828
   1413.74390     542.8679     394.4740   1413.74390     542.8679     394.4740
   1413.72864     541.3868     392.8393   1413.72864     541.3868     392.8393
   1413.71338     538.9062     391.3022   1413.71338     538.9062     391.3022
   1413.69812     535.5113     389.5061   1413.69812     535.5113     389.5061
   1413.68286     533.2970     387.8371   1413.68286     533.2970     387.8371
   1413.66760     530.1997     386.7416   1413.66760     530.1997     386.7416
   1413.65234     527.1390     385.0381   1413.65234     527.1390     385.0381
   1413.63708     524.7656     383.0085   1413.63708     524.7656     383.0085
   1413.62183     521.9752     381.7941   1413.62183     521.9752     381.7941
   1413.60657     519.0435     379.9798   1413.60657     519.0435     379.9798
   1413.59131     515.5546     378.8906   1413.59131     515.5546     378.8906
   1413.57605     513.1893     376.9587   1413.57605     513.1893     376.9587
   1413.56079     510.0977     375.0125   1413.56079     510.0977     375.0125
   1413.54553     508.1684     373.6555   1413.54553     508.1684     373.6555
   1413.53027     505.2209     372.7358   1413.53027     505.2209     372.7358
   1413.51501     503.1224     370.9192   1413.51501     503.1224     370.9192
   1413.49976     499.5923     368.9460   1413.49976     499.5923     368.9460
   1413.48450     497.4221     367.6898   1413.48450     497.4221     367.6898
   1413.46924     493.5158     365.4790   1413.46924     493.5158     365.4790
   1413.45398     491.5470     364.1767   1413.45398     491.5470     364.1767
   1413.43872     488.3256     363.1998   1413.43872     488.3256     363.1998
   1413.42346     486.3593     361.6413   1413.42346     486.3593     361.6413
   1413.40820     482.4878     360.3193   1413.40820     482.4878     360.3193
   1413.39294     480.6674     358.3284   1413.39294     480.6674     358.3284
   1413.37769     478.4410     357.0002   1413.37769     478.4410     357.0002
   1413.36243     475.7697     354.8575   1413.36243     475.7697     354.8575
   1413.34717     472.1563     353.9448   1413.34717     472.1563     353.9448
   1413.33191     470.2678     352.7688   1413.33191     470.2678     352.7688
   1413.31665     466.6587     350.6700   1413.31665     466.6587     350.6700
   1413.30139     465.5198     349.6228   1413.30139     465.5198     349.6228
   1413.28613     462.6144     348.2265   1413.28613     462.6144     348.2265
   1413.27087     459.5193     346.5906   1413.27087     459.5193     346.5906
   1413.25562     457.8713     345.5392   1413.25562     457.8713     345.5392
   1413.24036     454.1824     343.6085   1413.24036     454.1824     343.6085
   1413.22510     452.0056     342.4881   1413.22510     452.0056     342.4881
   1413.20984     449.8643     341.2335   1413.20984     449.8643     341.2335
   1413.19458     447.0583     339.8226   1413.19458     447.0583     339.8226
   1413.17932     445.1613     338.8386   1413.17932     445.1613     338.8386
   1413.16406     442.0192     337.4901   1413.16406     442.0192     337.4901
   1413.14880     440.0892     336.0042   1413.14880     440.0892     336.0042
   1413.13354     437.7344     334.6704   1413.13354     437.7344     334.6704
   1413.11829     435.7321     333.1690   1413.11829     435.7321     333.1690
   1413.10303     433.0988     332.7895   1413.10303     433.0988     332.7895
   1413.08777     430.5622     331.7746   1413.08777     430.5622     331.7746
   1413.07251     428.4975     329.9543   1413.07251     428.4975     329.9543
   1413.05725     426.3442     328.8130   1413.05725     426.3442     328.8130
   1413.04199     424.1786     327.6858   1413.04199     424.1786     327.6858
   1413.02673     421.6407     327.3757   1413.02673     421.6407     327.3757
   1413.01147     419.8801     326.1499   1413.01147     419.8801     326.1499
   1412.99622     417.5117     325.3169   1412.99622     417.5117     325.3169
   1412.98096     416.0500     323.8666   1412.98096     416.0500     323.8666
   1412.96570     413.5750     323.0976   1412.96570     413.5750     323.0976
   1412.95044     411.9643     322.9161   1412.95044     411.9643     322.9161
   1412.93518     409.9255     321.0696   1412.93518     409.9255     321.0696
   1412.91992     407.9100     320.3271   1412.91992     407.9100     320.3271
   1412.90466     405.4503     319.3714   1412.90466     405.4503     319.3714
   1412.88940     403.9944     319.1079   1412.88940     403.9944     319.1079
   1412.87415     402.2125     318.4520   1412.87415     402.2125     318.4520
   1412.85889     401.0107     316.8360   1412.85889     401.0107     316.8360
   1412.84363     398.7852     316.9812   1412.84363     398.7852     316.9812
   1412.82837     397.6573     315.8080   1412.82837     397.6573     315.8080
   1412.81311     395.9646     315.3907   1412.81311     395.9646     315.3907
   1412.79785     394.2725     315.5219   1412.79785     394.2725     315.5219
   1412.78259     392.9965     314.5648   1412.78259     392.9965     314.5648
   1412.76733     391.0352     313.9014   1412.76733     391.0352     313.9014
   1412.75208     389.8294     313.5101   1412.75208     389.8294     313.5101
   1412.73682     388.1865     313.6577   1412.73682     388.1865     313.6577
   1412.72156     387.2789     313.2619   1412.72156     387.2789     313.2619
   1412.70630     385.8485     312.8020   1412.70630     385.8485     312.8020
   1412.69104     384.8199     312.4256   1412.69104     384.8199     312.4256
   1412.67578     383.2187     312.1497   1412.67578     383.2187     312.1497
   1412.66052     382.0873     312.3401   1412.66052     382.0873     312.3401
   1412.64526     381.0248     311.7949   1412.64526     381.0248     311.7949
   1412.63000     379.4576     312.3503   1412.63000     379.4576     312.3503
   1412.61475     379.7464     311.9468   1412.61475     379.7464     311.9468
   1412.59949     378.5628     312.2705   1412.59949     378.5628     312.2705
   1412.58423     377.2439     311.9064   1412.58423     377.2439     311.9064
   1412.56897     376.5143     312.7039   1412.56897     376.5143     312.7039
   1412.55371     375.3736     312.9043   1412.55371     375.3736     312.9043
   1412.53845     375.1665     312.7939   1412.53845     375.1665     312.7939
   1412.52319     373.7702     313.4323   1412.52319     373.7702     313.4323
   1412.50793     373.9382     313.7159   1412.50793     373.9382     313.7159
   1412.49268     372.8870     313.8484   1412.49268     372.8870     313.8484
   1412.47742     372.5133     314.1262   1412.47742     372.5133     314.1262
   1412.46216     372.5035     315.0191   1412.46216     372.5035     315.0191
   1412.44690     372.1946     315.1805   1412.44690     372.1946     315.1805
   1412.43164     370.9339     315.6983   1412.43164     370.9339     315.6983
   1412.41638     370.8636     316.7680   1412.41638     370.8636     316.7680
   1412.40112     370.9428     317.6921   1412.40112     370.9428     317.6921
   1412.38586     369.8499     318.1157   1412.38586     369.8499     318.1157
   1412.37061     370.1952     318.3303   1412.37061     370.1952     318.3303
   1412.35535     370.8457     319.7773   1412.35535     370.8457     319.7773
   1412.34009     370.6974     320.5271   1412.34009     370.6974     320.5271
   1412.32483     371.2493     322.0052   1412.32483     371.2493     322.0052
   1412.30957     369.9810     322.9062   1412.30957     369.9810     322.9062
   1412.29431     369.9378     323.4066   1412.29431     369.9378     323.4066
   1412.27905     370.4577     324.9931   1412.27905     370.4577     324.9931
   1412.26379     371.0473     326.1575   1412.26379     371.0473     326.1575
   1412.24854     371.6816     327.7296   1412.24854     371.6816     327.7296
   1412.23328     372.1615     329.0156   1412.23328     372.1615     329.0156
   1412.21802     372.8278     329.8705   1412.21802     372.8278     329.8705
   1412.20276     372.4391     331.2677   1412.20276     372.4391     331.2677