#     FILENAME=!Skynet_57528_lach-hhg-138_20456_20962.cyb.fits
#     BASENAME=Skynet_57528_lach-hhg-138_20456_20962
#     SRC_NAME=lach-hhg-138
#     OBSERVER=hhgmadison16_9500
#     DATE_OBS=2016-05-20T17:13:30.750
#        OBSID=20456
#      SCANNUM=20962
#          MJD=57528.7188
#          UTC=62099
#     SCANTYPE=track
#     DATAMODE=HIRES
#     TUNEFREQ=1420.0000
# Actual_FREQ1=1420.0000
# Actual_FREQ2=1420.0000
#    LO1Tuning=6870.000
#     RFFILTER=1355_1435
#        OBSBW=-15.6250
#        NCHAN=1024 
#        FOCUS=37.0709
#           RA=02:53:39.59
#          DEC=59:14:50.32
#      RA(hrs)=2.894300
#     DEC(deg)=59.247300
#    AZIM(deg)=341.290
#    ELEV(deg)=67.296
#     IFattens=11.00, 9.00
#      WARNING=None
#    TCAL_XL1=7.9635
#    TCAL_YR1=9.1340
#    TCAL_XL2=7.9635
#    TCAL_YR2=9.1340
#     TRX_XL1=11.7060
#     TRX_YR1=11.7060
#     TRX_XL2=11.7060
#     TRX_YR2=11.7060
#        TAVE=1.0000
#Freq1(MHz)          XL1          YR1  Freq2(MHz)          XL2          YR2 

   1427.81250     384.8859     247.0346   1427.81250     384.8859     247.0346
   1427.79724     384.8691     248.1595   1427.79724     384.8691     248.1595
   1427.78198     385.7105     248.8254   1427.78198     385.7105     248.8254
   1427.76672     386.7773     249.8834   1427.76672     386.7773     249.8834
   1427.75146     387.2305     251.0563   1427.75146     387.2305     251.0563
   1427.73621     388.1950     251.8595   1427.73621     388.1950     251.8595
   1427.72095     390.3248     253.2641   1427.72095     390.3248     253.2641
   1427.70569     390.8360     254.2566   1427.70569     390.8360     254.2566
   1427.69043     391.5777     255.5001   1427.69043     391.5777     255.5001
   1427.67517     392.7750     256.5444   1427.67517     392.7750     256.5444
   1427.65991     394.5086     257.7801   1427.65991     394.5086     257.7801
   1427.64465     395.2245     258.9255   1427.64465     395.2245     258.9255
   1427.62939     396.1395     260.2018   1427.62939     396.1395     260.2018
   1427.61414     397.4026     262.2381   1427.61414     397.4026     262.2381
   1427.59888     398.5327     262.9512   1427.59888     398.5327     262.9512
   1427.58362     400.7450     264.6349   1427.58362     400.7450     264.6349
   1427.56836     402.0406     265.6805   1427.56836     402.0406     265.6805
   1427.55310     403.2653     267.7266   1427.55310     403.2653     267.7266
   1427.53784     405.6820     268.6692   1427.53784     405.6820     268.6692
   1427.52258     407.7659     270.1525   1427.52258     407.7659     270.1525
   1427.50732     407.4734     272.0430   1427.50732     407.4734     272.0430
   1427.49207     409.7082     273.2756   1427.49207     409.7082     273.2756
   1427.47681     412.2701     274.6801   1427.47681     412.2701     274.6801
   1427.46155     414.0936     276.8147   1427.46155     414.0936     276.8147
   1427.44629     416.4625     278.2119   1427.44629     416.4625     278.2119
   1427.43103     417.6117     279.9128   1427.43103     417.6117     279.9128
   1427.41577     419.3721     281.5304   1427.41577     419.3721     281.5304
   1427.40051     422.3637     283.2798   1427.40051     422.3637     283.2798
   1427.38525     424.2994     285.3333   1427.38525     424.2994     285.3333
   1427.37000     426.1107     286.8882   1427.37000     426.1107     286.8882
   1427.35474     427.5832     288.7013   1427.35474     427.5832     288.7013
   1427.33948     430.1164     290.0648   1427.33948     430.1164     290.0648
   1427.32422     432.7268     292.5439   1427.32422     432.7268     292.5439
   1427.30896     435.3409     294.5015   1427.30896     435.3409     294.5015
   1427.29370     436.9257     296.1487   1427.29370     436.9257     296.1487
   1427.27844     439.3503     297.9884   1427.27844     439.3503     297.9884
   1427.26318     441.7734     300.1684   1427.26318     441.7734     300.1684
   1427.24792     443.9360     301.9161   1427.24792     443.9360     301.9161
   1427.23267     447.0278     303.9128   1427.23267     447.0278     303.9128
   1427.21741     449.4984     305.6286   1427.21741     449.4984     305.6286
   1427.20215     452.8034     307.6571   1427.20215     452.8034     307.6571
   1427.18689     455.0831     309.3493   1427.18689     455.0831     309.3493
   1427.17163     458.0048     311.9432   1427.17163     458.0048     311.9432
   1427.15637     461.1812     313.8716   1427.15637     461.1812     313.8716
   1427.14111     463.5559     315.9691   1427.14111     463.5559     315.9691
   1427.12585     465.3488     317.6862   1427.12585     465.3488     317.6862
   1427.11060     468.8418     319.8744   1427.11060     468.8418     319.8744
   1427.09534     470.9491     322.1439   1427.09534     470.9491     322.1439
   1427.08008     474.5932     323.8014   1427.08008     474.5932     323.8014
   1427.06482     476.8088     325.7934   1427.06482     476.8088     325.7934
   1427.04956     479.5347     327.8838   1427.04956     479.5347     327.8838
   1427.03430     483.2019     330.4479   1427.03430     483.2019     330.4479
   1427.01904     485.3911     331.8257   1427.01904     485.3911     331.8257
   1427.00378     488.0876     334.3525   1427.00378     488.0876     334.3525
   1426.98853     491.5497     335.5435   1426.98853     491.5497     335.5435
   1426.97327     495.1427     338.6740   1426.97327     495.1427     338.6740
   1426.95801     497.7697     340.4379   1426.95801     497.7697     340.4379
   1426.94275     500.4758     342.4716   1426.94275     500.4758     342.4716
   1426.92749     504.3205     345.2607   1426.92749     504.3205     345.2607
   1426.91223     507.4488     347.2501   1426.91223     507.4488     347.2501
   1426.89697     510.1100     349.2910   1426.89697     510.1100     349.2910
   1426.88171     512.3092     350.7570   1426.88171     512.3092     350.7570
   1426.86646     517.4442     353.4367   1426.86646     517.4442     353.4367
   1426.85120     519.5201     355.4147   1426.85120     519.5201     355.4147
   1426.83594     522.8837     357.6558   1426.83594     522.8837     357.6558
   1426.82068     526.1856     359.8874   1426.82068     526.1856     359.8874
   1426.80542     529.3662     361.7646   1426.80542     529.3662     361.7646
   1426.79016     532.2025     363.6902   1426.79016     532.2025     363.6902
   1426.77490     536.0483     366.1898   1426.77490     536.0483     366.1898
   1426.75964     538.9756     368.0181   1426.75964     538.9756     368.0181
   1426.74438     542.1003     370.2517   1426.74438     542.1003     370.2517
   1426.72913     545.6315     372.4661   1426.72913     545.6315     372.4661
   1426.71387     548.6685     373.9836   1426.71387     548.6685     373.9836
   1426.69861     551.7874     376.1186   1426.69861     551.7874     376.1186
   1426.68335     555.2948     377.9338   1426.68335     555.2948     377.9338
   1426.66809     558.7828     380.4627   1426.66809     558.7828     380.4627
   1426.65283     561.3153     381.9187   1426.65283     561.3153     381.9187
   1426.63757     564.8171     383.9991   1426.63757     564.8171     383.9991
   1426.62231     567.8607     386.8580   1426.62231     567.8607     386.8580
   1426.60706     570.9305     388.4470   1426.60706     570.9305     388.4470
   1426.59180     575.0659     390.0837   1426.59180     575.0659     390.0837
   1426.57654     577.0149     391.4579   1426.57654     577.0149     391.4579
   1426.56128     581.0857     394.4173   1426.56128     581.0857     394.4173
   1426.54602     584.0726     396.2793   1426.54602     584.0726     396.2793
   1426.53076     588.4749     398.3629   1426.53076     588.4749     398.3629
   1426.51550     591.0705     400.0111   1426.51550     591.0705     400.0111
   1426.50024     593.8378     401.7257   1426.50024     593.8378     401.7257
   1426.48499     597.7972     403.3947   1426.48499     597.7972     403.3947
   1426.46973     601.0612     406.1499   1426.46973     601.0612     406.1499
   1426.45447     603.6745     407.6143   1426.45447     603.6745     407.6143
   1426.43921     606.7670     408.8938   1426.43921     606.7670     408.8938
   1426.42395     610.3630     411.3696   1426.42395     610.3630     411.3696
   1426.40869     613.9795     412.8666   1426.40869     613.9795     412.8666
   1426.39343     617.1534     414.6284   1426.39343     617.1534     414.6284
   1426.37817     619.6229     416.1175   1426.37817     619.6229     416.1175
   1426.36292     622.7350     417.8109   1426.36292     622.7350     417.8109
   1426.34766     625.8235     420.1709   1426.34766     625.8235     420.1709
   1426.33240     628.5342     420.8344   1426.33240     628.5342     420.8344
   1426.31714     632.4807     423.9369   1426.31714     632.4807     423.9369
   1426.30188     635.3434     424.5717   1426.30188     635.3434     424.5717
   1426.28662     638.4235     426.9057   1426.28662     638.4235     426.9057
   1426.27136     641.2990     428.5034   1426.27136     641.2990     428.5034
   1426.25610     645.2415     430.1547   1426.25610     645.2415     430.1547
   1426.24084     647.5499     431.7054   1426.24084     647.5499     431.7054
   1426.22559     651.2390     433.6338   1426.22559     651.2390     433.6338
   1426.21033     654.2555     434.9911   1426.21033     654.2555     434.9911
   1426.19507     656.0853     436.2873   1426.19507     656.0853     436.2873
   1426.17981     659.2401     437.3374   1426.17981     659.2401     437.3374
   1426.16455     662.6939     439.3374   1426.16455     662.6939     439.3374
   1426.14929     664.2676     440.5186   1426.14929     664.2676     440.5186
   1426.13403     667.9173     442.3190   1426.13403     667.9173     442.3190
   1426.11877     669.9828     443.6539   1426.11877     669.9828     443.6539
   1426.10352     672.5543     444.5153   1426.10352     672.5543     444.5153
   1426.08826     676.8966     446.5502   1426.08826     676.8966     446.5502
   1426.07300     678.7175     447.8856   1426.07300     678.7175     447.8856
   1426.05774     680.9521     448.9283   1426.05774     680.9521     448.9283
   1426.04248     683.4377     451.1995   1426.04248     683.4377     451.1995
   1426.02722     687.7916     451.5108   1426.02722     687.7916     451.5108
   1426.01196     689.0807     453.6708   1426.01196     689.0807     453.6708
   1425.99670     692.7200     455.0260   1425.99670     692.7200     455.0260
   1425.98145     694.2764     455.9119   1425.98145     694.2764     455.9119
   1425.96619     695.9902     457.5648   1425.96619     695.9902     457.5648
   1425.95093     700.4514     458.3391   1425.95093     700.4514     458.3391
   1425.93567     702.0521     460.0355   1425.93567     702.0521     460.0355
   1425.92041     704.2868     460.7323   1425.92041     704.2868     460.7323
   1425.90515     707.2914     462.9729   1425.90515     707.2914     462.9729
   1425.88989     709.9720     462.8150   1425.88989     709.9720     462.8150
   1425.87463     711.4547     464.6034   1425.87463     711.4547     464.6034
   1425.85938     712.7667     465.4928   1425.85938     712.7667     465.4928
   1425.84412     715.7600     466.6050   1425.84412     715.7600     466.6050
   1425.82886     718.7316     467.6213   1425.82886     718.7316     467.6213
   1425.81360     721.4266     468.9055   1425.81360     721.4266     468.9055
   1425.79834     722.7196     470.0231   1425.79834     722.7196     470.0231
   1425.78308     726.1412     470.5978   1425.78308     726.1412     470.5978
   1425.76782     727.0972     471.2868   1425.76782     727.0972     471.2868
   1425.75256     728.6271     473.4684   1425.75256     728.6271     473.4684
   1425.73730     732.0549     473.4525   1425.73730     732.0549     473.4525
   1425.72205     733.6074     474.9155   1425.72205     733.6074     474.9155
   1425.70679     735.6536     475.4671   1425.70679     735.6536     475.4671
   1425.69153     736.8599     475.8497   1425.69153     736.8599     475.8497
   1425.67627     739.5353     477.6332   1425.67627     739.5353     477.6332
   1425.66101     740.0817     478.8504   1425.66101     740.0817     478.8504
   1425.64575     742.5186     480.1960   1425.64575     742.5186     480.1960
   1425.63049     743.8978     480.3842   1425.63049     743.8978     480.3842
   1425.61523     745.7230     480.8506   1425.61523     745.7230     480.8506
   1425.59998     748.2659     481.9219   1425.59998     748.2659     481.9219
   1425.58472     748.9099     482.4155   1425.58472     748.9099     482.4155
   1425.56946     751.1196     483.1524   1425.56946     751.1196     483.1524
   1425.55420     753.8829     483.7830   1425.55420     753.8829     483.7830
   1425.53894     753.9464     485.6337   1425.53894     753.9464     485.6337
   1425.52368     756.7091     485.5097   1425.52368     756.7091     485.5097
   1425.50842     757.4624     486.4124   1425.50842     757.4624     486.4124
   1425.49316     758.8186     486.3287   1425.49316     758.8186     486.3287
   1425.47791     760.6968     488.0152   1425.47791     760.6968     488.0152
   1425.46265     761.5932     487.8348   1425.46265     761.5932     487.8348
   1425.44739     764.3557     489.1837   1425.44739     764.3557     489.1837
   1425.43213     765.1602     490.3850   1425.43213     765.1602     490.3850
   1425.41687     766.7488     490.2086   1425.41687     766.7488     490.2086
   1425.40161     767.1657     491.2103   1425.40161     767.1657     491.2103
   1425.38635     768.8315     492.2424   1425.38635     768.8315     492.2424
   1425.37109     768.1824     492.1285   1425.37109     768.1824     492.1285
   1425.35583     770.2247     492.5838   1425.35583     770.2247     492.5838
   1425.34058     772.1119     492.9695   1425.34058     772.1119     492.9695
   1425.32532     773.6387     493.9035   1425.32532     773.6387     493.9035
   1425.31006     773.7363     494.4882   1425.31006     773.7363     494.4882
   1425.29480     774.5446     495.1653   1425.29480     774.5446     495.1653
   1425.27954     776.6303     495.2023   1425.27954     776.6303     495.2023
   1425.26428     777.1152     496.1671   1425.26428     777.1152     496.1671
   1425.24902     777.9030     496.3171   1425.24902     777.9030     496.3171
   1425.23376     778.6713     496.6826   1425.23376     778.6713     496.6826
   1425.21851     779.3516     497.7687   1425.21851     779.3516     497.7687
   1425.20325     780.2987     498.9024   1425.20325     780.2987     498.9024
   1425.18799     781.8384     498.2260   1425.18799     781.8384     498.2260
   1425.17273     782.5625     499.1469   1425.17273     782.5625     499.1469
   1425.15747     783.1918     498.9887   1425.15747     783.1918     498.9887
   1425.14221     783.6618     498.9434   1425.14221     783.6618     498.9434
   1425.12695     784.0007     499.8934   1425.12695     784.0007     499.8934
   1425.11169     785.2307     499.9532   1425.11169     785.2307     499.9532
   1425.09644     785.1307     500.7807   1425.09644     785.1307     500.7807
   1425.08118     785.8055     500.9636   1425.08118     785.8055     500.9636
   1425.06592     786.0971     501.5628   1425.06592     786.0971     501.5628
   1425.05066     788.7445     501.9807   1425.05066     788.7445     501.9807
   1425.03540     787.7906     502.1875   1425.03540     787.7906     502.1875
   1425.02014     789.7270     502.5102   1425.02014     789.7270     502.5102
   1425.00488     788.9858     502.8580   1425.00488     788.9858     502.8580
   1424.98962     789.6357     502.8646   1424.98962     789.6357     502.8646
   1424.97437     790.5839     503.1870   1424.97437     790.5839     503.1870
   1424.95911     789.1458     503.3286   1424.95911     789.1458     503.3286
   1424.94385     790.7580     504.4501   1424.94385     790.7580     504.4501
   1424.92859     791.4642     504.9131   1424.92859     791.4642     504.9131
   1424.91333     790.9350     504.0673   1424.91333     790.9350     504.0673
   1424.89807     789.9807     505.5784   1424.89807     789.9807     505.5784
   1424.88281     792.0554     504.7465   1424.88281     792.0554     504.7465
   1424.86755     789.9848     505.5436   1424.86755     789.9848     505.5436
   1424.85229     791.6329     506.0889   1424.85229     791.6329     506.0889
   1424.83704     792.8445     505.7112   1424.83704     792.8445     505.7112
   1424.82178     792.4266     505.8178   1424.82178     792.4266     505.8178
   1424.80652     792.3109     506.2378   1424.80652     792.3109     506.2378
   1424.79126     792.9054     507.5418   1424.79126     792.9054     507.5418
   1424.77600     793.2872     506.1274   1424.77600     793.2872     506.1274
   1424.76074     792.3653     506.6518   1424.76074     792.3653     506.6518
   1424.74548     792.8471     507.2925   1424.74548     792.8471     507.2925
   1424.73022     792.4040     506.8976   1424.73022     792.4040     506.8976
   1424.71497     793.8402     506.8535   1424.71497     793.8402     506.8535
   1424.69971     792.9860     507.3554   1424.69971     792.9860     507.3554
   1424.68445     792.3871     507.2172   1424.68445     792.3871     507.2172
   1424.66919     793.0699     508.4912   1424.66919     793.0699     508.4912
   1424.65393     793.1807     508.1863   1424.65393     793.1807     508.1863
   1424.63867     792.2360     507.4969   1424.63867     792.2360     507.4969
   1424.62341     793.0513     508.1221   1424.62341     793.0513     508.1221
   1424.60815     793.0015     508.5786   1424.60815     793.0015     508.5786
   1424.59290     792.9110     508.4648   1424.59290     792.9110     508.4648
   1424.57764     793.2158     508.6724   1424.57764     793.2158     508.6724
   1424.56238     791.6038     508.3991   1424.56238     791.6038     508.3991
   1424.54712     791.8557     508.3305   1424.54712     791.8557     508.3305
   1424.53186     791.3458     508.9564   1424.53186     791.3458     508.9564
   1424.51660     791.1170     509.2286   1424.51660     791.1170     509.2286
   1424.50134     791.0053     507.9864   1424.50134     791.0053     507.9864
   1424.48608     791.4926     508.2827   1424.48608     791.4926     508.2827
   1424.47083     791.1761     509.1216   1424.47083     791.1761     509.1216
   1424.45557     790.3911     509.6078   1424.45557     790.3911     509.6078
   1424.44031     790.0932     508.8238   1424.44031     790.0932     508.8238
   1424.42505     790.2200     509.1553   1424.42505     790.2200     509.1553
   1424.40979     790.9969     508.6922   1424.40979     790.9969     508.6922
   1424.39453     789.7192     509.2568   1424.39453     789.7192     509.2568
   1424.37927     789.7767     509.1014   1424.37927     789.7767     509.1014
   1424.36401     788.7385     508.7146   1424.36401     788.7385     508.7146
   1424.34875     788.8162     509.0934   1424.34875     788.8162     509.0934
   1424.33350     789.1636     509.3405   1424.33350     789.1636     509.3405
   1424.31824     788.1329     510.2581   1424.31824     788.1329     510.2581
   1424.30298     787.9128     509.5054   1424.30298     787.9128     509.5054
   1424.28772     785.6367     509.6700   1424.28772     785.6367     509.6700
   1424.27246     787.0257     509.5017   1424.27246     787.0257     509.5017
   1424.25720     787.2958     508.9779   1424.25720     787.2958     508.9779
   1424.24194     785.6010     509.0929   1424.24194     785.6010     509.0929
   1424.22668     784.2095     509.3850   1424.22668     784.2095     509.3850
   1424.21143     784.6272     509.8913   1424.21143     784.6272     509.8913
   1424.19617     784.3530     509.0103   1424.19617     784.3530     509.0103
   1424.18091     785.4217     508.9152   1424.18091     785.4217     508.9152
   1424.16565     783.1826     509.3892   1424.16565     783.1826     509.3892
   1424.15039     784.2687     509.5187   1424.15039     784.2687     509.5187
   1424.13513     782.5575     509.0564   1424.13513     782.5575     509.0564
   1424.11987     781.7229     508.8417   1424.11987     781.7229     508.8417
   1424.10461     780.1998     508.8763   1424.10461     780.1998     508.8763
   1424.08936     782.9342     509.1516   1424.08936     782.9342     509.1516
   1424.07410     780.5286     508.0286   1424.07410     780.5286     508.0286
   1424.05884     779.5919     509.4748   1424.05884     779.5919     509.4748
   1424.04358     779.8444     508.6598   1424.04358     779.8444     508.6598
   1424.02832     778.6401     508.2871   1424.02832     778.6401     508.2871
   1424.01306     778.5999     508.1824   1424.01306     778.5999     508.1824
   1423.99780     778.4163     508.4032   1423.99780     778.4163     508.4032
   1423.98254     777.0853     508.4486   1423.98254     777.0853     508.4486
   1423.96729     775.4015     507.9295   1423.96729     775.4015     507.9295
   1423.95203     777.5875     508.1879   1423.95203     777.5875     508.1879
   1423.93677     776.3443     508.3489   1423.93677     776.3443     508.3489
   1423.92151     773.9904     507.9585   1423.92151     773.9904     507.9585
   1423.90625     773.9652     507.6504   1423.90625     773.9652     507.6504
   1423.89099     774.1016     506.9849   1423.89099     774.1016     506.9849
   1423.87573     774.5471     507.9556   1423.87573     774.5471     507.9556
   1423.86047     772.6667     507.9277   1423.86047     772.6667     507.9277
   1423.84521     771.8114     506.7615   1423.84521     771.8114     506.7615
   1423.82996     772.4759     506.9077   1423.82996     772.4759     506.9077
   1423.81470     771.8078     507.5239   1423.81470     771.8078     507.5239
   1423.79944     771.5777     506.6619   1423.79944     771.5777     506.6619
   1423.78418     770.4211     505.5794   1423.78418     770.4211     505.5794
   1423.76892     769.8193     505.8589   1423.76892     769.8193     505.8589
   1423.75366     769.7035     505.4166   1423.75366     769.7035     505.4166
   1423.73840     768.9745     506.2273   1423.73840     768.9745     506.2273
   1423.72314     768.3259     505.5276   1423.72314     768.3259     505.5276
   1423.70789     768.2961     505.5568   1423.70789     768.2961     505.5568
   1423.69263     766.9412     505.3625   1423.69263     766.9412     505.3625
   1423.67737     766.5142     505.9963   1423.67737     766.5142     505.9963
   1423.66211     768.3663     504.9112   1423.66211     768.3663     504.9112
   1423.64685     766.0599     504.4339   1423.64685     766.0599     504.4339
   1423.63159     764.5916     505.3114   1423.63159     764.5916     505.3114
   1423.61633     764.9111     504.5686   1423.61633     764.9111     504.5686
   1423.60107     764.3347     503.5976   1423.60107     764.3347     503.5976
   1423.58582     762.9905     503.7661   1423.58582     762.9905     503.7661
   1423.57056     762.1840     503.3933   1423.57056     762.1840     503.3933
   1423.55530     762.5229     502.6528   1423.55530     762.5229     502.6528
   1423.54004     761.4208     503.5008   1423.54004     761.4208     503.5008
   1423.52478     761.0814     502.7761   1423.52478     761.0814     502.7761
   1423.50952     760.4503     501.5804   1423.50952     760.4503     501.5804
   1423.49426     759.3271     502.1646   1423.49426     759.3271     502.1646
   1423.47900     758.8954     501.5930   1423.47900     758.8954     501.5930
   1423.46375     758.2844     500.8897   1423.46375     758.2844     500.8897
   1423.44849     758.4694     501.3786   1423.44849     758.4694     501.3786
   1423.43323     756.9944     500.2961   1423.43323     756.9944     500.2961
   1423.41797     757.7850     500.3065   1423.41797     757.7850     500.3065
   1423.40271     756.7528     499.5020   1423.40271     756.7528     499.5020
   1423.38745     754.7379     499.5390   1423.38745     754.7379     499.5390
   1423.37219     756.2660     499.4122   1423.37219     756.2660     499.4122
   1423.35693     755.1450     498.8680   1423.35693     755.1450     498.8680
   1423.34167     755.3604     497.8536   1423.34167     755.3604     497.8536
   1423.32642     754.9581     498.5609   1423.32642     754.9581     498.5609
   1423.31116     753.7969     497.6437   1423.31116     753.7969     497.6437
   1423.29590     752.9981     497.8786   1423.29590     752.9981     497.8786
   1423.28064     753.2200     496.2188   1423.28064     753.2200     496.2188
   1423.26538     752.2291     495.7026   1423.26538     752.2291     495.7026
   1423.25012     751.7257     495.7809   1423.25012     751.7257     495.7809
   1423.23486     749.8707     495.7446   1423.23486     749.8707     495.7446
   1423.21960     750.0286     495.3960   1423.21960     750.0286     495.3960
   1423.20435     750.5402     494.5992   1423.20435     750.5402     494.5992
   1423.18909     749.6359     493.7144   1423.18909     749.6359     493.7144
   1423.17383     748.2529     492.9740   1423.17383     748.2529     492.9740
   1423.15857     749.2806     493.4753   1423.15857     749.2806     493.4753
   1423.14331     747.0549     492.7863   1423.14331     747.0549     492.7863
   1423.12805     747.0013     493.2105   1423.12805     747.0013     493.2105
   1423.11279     747.4615     491.5013   1423.11279     747.4615     491.5013
   1423.09753     747.0880     490.7600   1423.09753     747.0880     490.7600
   1423.08228     746.3662     490.6174   1423.08228     746.3662     490.6174
   1423.06702     744.8936     489.7717   1423.06702     744.8936     489.7717
   1423.05176     745.7911     488.5992   1423.05176     745.7911     488.5992
   1423.03650     743.8074     489.1839   1423.03650     743.8074     489.1839
   1423.02124     743.4617     488.0107   1423.02124     743.4617     488.0107
   1423.00598     743.8123     488.8638   1423.00598     743.8123     488.8638
   1422.99072     744.7310     487.3650   1422.99072     744.7310     487.3650
   1422.97546     743.4543     487.4246   1422.97546     743.4543     487.4246
   1422.96021     743.6655     486.5960   1422.96021     743.6655     486.5960
   1422.94495     742.3464     486.4348   1422.94495     742.3464     486.4348
   1422.92969     742.3133     485.7019   1422.92969     742.3133     485.7019
   1422.91443     743.2286     485.3954   1422.91443     743.2286     485.3954
   1422.89917     742.2812     483.9959   1422.89917     742.2812     483.9959
   1422.88391     740.7778     484.2335   1422.88391     740.7778     484.2335
   1422.86865     740.6237     482.8438   1422.86865     740.6237     482.8438
   1422.85339     739.8708     482.3201   1422.85339     739.8708     482.3201
   1422.83813     739.5212     482.2777   1422.83813     739.5212     482.2777
   1422.82288     738.9960     481.1185   1422.82288     738.9960     481.1185
   1422.80762     739.3492     480.4901   1422.80762     739.3492     480.4901
   1422.79236     738.8512     480.6295   1422.79236     738.8512     480.6295
   1422.77710     739.6057     478.9594   1422.77710     739.6057     478.9594
   1422.76184     738.9338     478.5775   1422.76184     738.9338     478.5775
   1422.74658     738.0537     477.4886   1422.74658     738.0537     477.4886
   1422.73132     737.4713     477.3334   1422.73132     737.4713     477.3334
   1422.71606     737.8304     476.4162   1422.71606     737.8304     476.4162
   1422.70081     737.6024     475.6026   1422.70081     737.6024     475.6026
   1422.68555     735.5123     475.6884   1422.68555     735.5123     475.6884
   1422.67029     735.5162     474.2377   1422.67029     735.5162     474.2377
   1422.65503     735.8231     473.7976   1422.65503     735.8231     473.7976
   1422.63977     735.0114     472.7945   1422.63977     735.0114     472.7945
   1422.62451     734.8434     472.3667   1422.62451     734.8434     472.3667
   1422.60925     734.8413     471.0084   1422.60925     734.8413     471.0084
   1422.59399     734.3425     470.9073   1422.59399     734.3425     470.9073
   1422.57874     733.1349     470.0843   1422.57874     733.1349     470.0843
   1422.56348     734.5572     469.2823   1422.56348     734.5572     469.2823
   1422.54822     733.9775     468.5241   1422.54822     733.9775     468.5241
   1422.53296     734.0253     466.9851   1422.53296     734.0253     466.9851
   1422.51770     734.0312     466.4771   1422.51770     734.0312     466.4771
   1422.50244     733.8463     465.8906   1422.50244     733.8463     465.8906
   1422.48718     733.8495     465.9263   1422.48718     733.8495     465.9263
   1422.47192     732.8777     464.4903   1422.47192     732.8777     464.4903
   1422.45667     733.0298     463.7313   1422.45667     733.0298     463.7313
   1422.44141     732.4366     463.3877   1422.44141     732.4366     463.3877
   1422.42615     732.2965     461.8362   1422.42615     732.2965     461.8362
   1422.41089     730.9755     461.4020   1422.41089     730.9755     461.4020
   1422.39563     732.6179     460.3650   1422.39563     732.6179     460.3650
   1422.38037     732.2561     459.3408   1422.38037     732.2561     459.3408
   1422.36511     731.5675     458.8243   1422.36511     731.5675     458.8243
   1422.34985     730.9313     458.2458   1422.34985     730.9313     458.2458
   1422.33459     730.6931     457.6170   1422.33459     730.6931     457.6170
   1422.31934     730.9018     456.7845   1422.31934     730.9018     456.7845
   1422.30408     730.8411     456.0903   1422.30408     730.8411     456.0903
   1422.28882     729.6760     455.3633   1422.28882     729.6760     455.3633
   1422.27356     730.6042     453.5448   1422.27356     730.6042     453.5448
   1422.25830     729.2245     453.1281   1422.25830     729.2245     453.1281
   1422.24304     731.7891     454.7294   1422.24304     731.7891     454.7294
   1422.22778     730.2980     452.6542   1422.22778     730.2980     452.6542
   1422.21252     730.4264     450.6226   1422.21252     730.4264     450.6226
   1422.19727     729.0566     449.6452   1422.19727     729.0566     449.6452
   1422.18201     729.9498     448.0369   1422.18201     729.9498     448.0369
   1422.16675     728.9131     447.5121   1422.16675     728.9131     447.5121
   1422.15149     728.8510     447.0973   1422.15149     728.8510     447.0973
   1422.13623     727.4822     446.2054   1422.13623     727.4822     446.2054
   1422.12097     727.9177     445.3420   1422.12097     727.9177     445.3420
   1422.10571     728.0913     444.3009   1422.10571     728.0913     444.3009
   1422.09045     728.5562     443.0777   1422.09045     728.5562     443.0777
   1422.07520     727.4440     442.2816   1422.07520     727.4440     442.2816
   1422.05994     728.4611     442.2735   1422.05994     728.4611     442.2735
   1422.04468     727.2613     441.0651   1422.04468     727.2613     441.0651
   1422.02942     727.9872     440.5276   1422.02942     727.9872     440.5276
   1422.01416     727.4278     438.6454   1422.01416     727.4278     438.6454
   1421.99890     726.8659     438.2037   1421.99890     726.8659     438.2037
   1421.98364     728.9206     437.2431   1421.98364     728.9206     437.2431
   1421.96838     727.1736     435.7039   1421.96838     727.1736     435.7039
   1421.95312     727.2430     435.5283   1421.95312     727.2430     435.5283
   1421.93787     726.2831     435.5077   1421.93787     726.2831     435.5077
   1421.92261     726.7480     434.3438   1421.92261     726.7480     434.3438
   1421.90735     728.3015     432.7836   1421.90735     728.3015     432.7836
   1421.89209     726.9305     432.5609   1421.89209     726.9305     432.5609
   1421.87683     726.5494     431.3282   1421.87683     726.5494     431.3282
   1421.86157     726.0919     430.2617   1421.86157     726.0919     430.2617
   1421.84631     724.7770     428.8445   1421.84631     724.7770     428.8445
   1421.83105     726.1659     428.4931   1421.83105     726.1659     428.4931
   1421.81580     726.2156     427.7257   1421.81580     726.2156     427.7257
   1421.80054     725.2209     426.5127   1421.80054     725.2209     426.5127
   1421.78528     726.3067     425.7083   1421.78528     726.3067     425.7083
   1421.77002     724.6629     424.2802   1421.77002     724.6629     424.2802
   1421.75476     726.5210     423.7838   1421.75476     726.5210     423.7838
   1421.73950     725.4607     422.8966   1421.73950     725.4607     422.8966
   1421.72424     724.9362     421.5373   1421.72424     724.9362     421.5373
   1421.70898     725.5403     420.8940   1421.70898     725.5403     420.8940
   1421.69373     724.8903     419.4930   1421.69373     724.8903     419.4930
   1421.67847     724.4236     418.5201   1421.67847     724.4236     418.5201
   1421.66321     725.5377     417.9349   1421.66321     725.5377     417.9349
   1421.64795     723.3901     417.4640   1421.64795     723.3901     417.4640
   1421.63269     724.5576     416.3016   1421.63269     724.5576     416.3016
   1421.61743     723.4324     415.9242   1421.61743     723.4324     415.9242
   1421.60217     723.6000     413.9330   1421.60217     723.6000     413.9330
   1421.58691     724.0258     413.5622   1421.58691     724.0258     413.5622
   1421.57166     724.1401     413.1081   1421.57166     724.1401     413.1081
   1421.55640     722.5957     412.2432   1421.55640     722.5957     412.2432
   1421.54114     723.1677     411.0500   1421.54114     723.1677     411.0500
   1421.52588     723.9344     410.2718   1421.52588     723.9344     410.2718
   1421.51062     724.0973     408.6420   1421.51062     724.0973     408.6420
   1421.49536     723.4570     408.2919   1421.49536     723.4570     408.2919
   1421.48010     722.8446     407.3834   1421.48010     722.8446     407.3834
   1421.46484     722.9931     406.1847   1421.46484     722.9931     406.1847
   1421.44958     722.8571     405.1370   1421.44958     722.8571     405.1370
   1421.43433     723.0558     404.3805   1421.43433     723.0558     404.3805
   1421.41907     722.6682     404.3376   1421.41907     722.6682     404.3376
   1421.40381     722.4545     402.3055   1421.40381     722.4545     402.3055
   1421.38855     721.3727     400.7761   1421.38855     721.3727     400.7761
   1421.37329     723.0730     399.8588   1421.37329     723.0730     399.8588
   1421.35803     723.1589     399.6935   1421.35803     723.1589     399.6935
   1421.34277     722.3544     398.7557   1421.34277     722.3544     398.7557
   1421.32751     722.3757     397.4744   1421.32751     722.3757     397.4744
   1421.31226     721.8993     397.4119   1421.31226     721.8993     397.4119
   1421.29700     722.4791     396.3272   1421.29700     722.4791     396.3272
   1421.28174     720.9647     395.0567   1421.28174     720.9647     395.0567
   1421.26648     722.3091     394.7805   1421.26648     722.3091     394.7805
   1421.25122     721.1392     394.2300   1421.25122     721.1392     394.2300
   1421.23596     722.5776     393.1031   1421.23596     722.5776     393.1031
   1421.22070     722.2314     392.3266   1421.22070     722.2314     392.3266
   1421.20544     724.5355     392.4236   1421.20544     724.5355     392.4236
   1421.19019     724.7505     391.9876   1421.19019     724.7505     391.9876
   1421.17493     724.8254     390.4626   1421.17493     724.8254     390.4626
   1421.15967     725.8287     390.7584   1421.15967     725.8287     390.7584
   1421.14441     726.3319     390.3481   1421.14441     726.3319     390.3481
   1421.12915     727.8189     389.9651   1421.12915     727.8189     389.9651
   1421.11389     726.8729     389.1571   1421.11389     726.8729     389.1571
   1421.09863     728.5688     388.8337   1421.09863     728.5688     388.8337
   1421.08337     726.7562     387.0840   1421.08337     726.7562     387.0840
   1421.06812     726.5130     386.7614   1421.06812     726.5130     386.7614
   1421.05286     727.1725     385.9118   1421.05286     727.1725     385.9118
   1421.03760     726.8544     384.9043   1421.03760     726.8544     384.9043
   1421.02234     725.5830     383.8015   1421.02234     725.5830     383.8015
   1421.00708     725.5535     383.0731   1421.00708     725.5535     383.0731
   1420.99182     726.1556     382.0540   1420.99182     726.1556     382.0540
   1420.97656     725.4388     381.7660   1420.97656     725.4388     381.7660
   1420.96130     727.3511     381.8846   1420.96130     727.3511     381.8846
   1420.94604     731.1155     382.4538   1420.94604     731.1155     382.4538
   1420.93079     738.1914     385.6289   1420.93079     738.1914     385.6289
   1420.91553     752.0306     391.9602   1420.91553     752.0306     391.9602
   1420.90027     774.3343     402.4695   1420.90027     774.3343     402.4695
   1420.88501     800.0314     415.1765   1420.88501     800.0314     415.1765
   1420.86975     872.6197     450.5285   1420.86975     872.6197     450.5285
   1420.85449    1000.5196     513.9081   1420.85449    1000.5196     513.9081
   1420.83923    1049.8568     537.6536   1420.83923    1049.8568     537.6536
   1420.82397     992.9871     508.4558   1420.82397     992.9871     508.4558
   1420.80872     972.9227     496.4925   1420.80872     972.9227     496.4925
   1420.79346    1059.9142     540.1244   1420.79346    1059.9142     540.1244
   1420.77820    1123.4788     571.4247   1420.77820    1123.4788     571.4247
   1420.76294    1059.3334     539.3514   1420.76294    1059.3334     539.3514
   1420.74768     960.1571     489.1177   1420.74768     960.1571     489.1177
   1420.73242     931.5483     471.8834   1420.73242     931.5483     471.8834
   1420.71716    1035.2781     521.7943   1420.71716    1035.2781     521.7943
   1420.70190    1331.2402     666.0511   1420.70190    1331.2402     666.0511
   1420.68665    1645.6471     822.0251   1420.68665    1645.6471     822.0251
   1420.67139    1919.7877     954.3797   1420.67139    1919.7877     954.3797
   1420.65613    1993.8015     990.5950   1420.65613    1993.8015     990.5950
   1420.64087    2014.9637     997.8919   1420.64087    2014.9637     997.8919
   1420.62561    2096.7292    1033.5953   1420.62561    2096.7292    1033.5953
   1420.61035    2257.0593    1111.8016   1420.61035    2257.0593    1111.8016
   1420.59509    2425.4600    1190.3920   1420.59509    2425.4600    1190.3920
   1420.57983    2506.5146    1226.3014   1420.57983    2506.5146    1226.3014
   1420.56458    2102.2642    1029.7616   1420.56458    2102.2642    1029.7616
   1420.54932    1554.5458     763.2994   1420.54932    1554.5458     763.2994
   1420.53406    1342.3906     659.5184   1420.53406    1342.3906     659.5184
   1420.51880    1299.0670     639.1807   1420.51880    1299.0670     639.1807
   1420.50354    1268.2727     621.2801   1420.50354    1268.2727     621.2801
   1420.48828    1246.2330     610.5886   1420.48828    1246.2330     610.5886
   1420.47302    1262.4912     618.2351   1420.47302    1262.4912     618.2351
   1420.45776    1383.0607     674.1429   1420.45776    1383.0607     674.1429
   1420.44250    1594.4120     774.9695   1420.44250    1594.4120     774.9695
   1420.42725    1768.9288     856.3276   1420.42725    1768.9288     856.3276
   1420.41199    1779.8080     862.3995   1420.41199    1779.8080     862.3995
   1420.39673    1426.5513     689.9916   1420.39673    1426.5513     689.9916
   1420.38147     944.0732     459.7175   1420.38147     944.0732     459.7175
   1420.36621     800.1378     390.2240   1420.36621     800.1378     390.2240
   1420.35095     758.6990     370.8880   1420.35095     758.6990     370.8880
   1420.33569     739.9034     361.5208   1420.33569     739.9034     361.5208
   1420.32043     731.3697     356.9949   1420.32043     731.3697     356.9949
   1420.30518     726.5457     354.5724   1420.30518     726.5457     354.5724
   1420.28992     724.3606     351.8356   1420.28992     724.3606     351.8356
   1420.27466     720.7773     350.4264   1420.27466     720.7773     350.4264
   1420.25940     719.7220     349.4305   1420.25940     719.7220     349.4305
   1420.24414     718.9690     348.1360   1420.24414     718.9690     348.1360
   1420.22888     716.7253     347.5695   1420.22888     716.7253     347.5695
   1420.21362     717.1241     346.3565   1420.21362     717.1241     346.3565
   1420.19836     715.4002     345.2027   1420.19836     715.4002     345.2027
   1420.18311     713.3728     344.7028   1420.18311     713.3728     344.7028
   1420.16785     713.9573     344.2033   1420.16785     713.9573     344.2033
   1420.15259     712.6890     342.7915   1420.15259     712.6890     342.7915
   1420.13733     713.1385     342.4108   1420.13733     713.1385     342.4108
   1420.12207     711.6080     341.6089   1420.12207     711.6080     341.6089
   1420.10681     711.3303     340.9145   1420.10681     711.3303     340.9145
   1420.09155     709.6487     340.0284   1420.09155     709.6487     340.0284
   1420.07629     708.0964     339.6516   1420.07629     708.0964     339.6516
   1420.06104     708.3757     339.2445   1420.06104     708.3757     339.2445
   1420.04578     709.6932     339.1450   1420.04578     709.6932     339.1450
   1420.03052     709.1784     338.6114   1420.03052     709.1784     338.6114
   1420.01526     709.8019     340.6448   1420.01526     709.8019     340.6448
   1420.00000     710.4389     340.9166   1420.00000     710.4389     340.9166
   1419.98474     711.0758     341.1885   1419.98474     711.0758     341.1885
   1419.96948     711.0784     337.6553   1419.96948     711.0784     337.6553
   1419.95422     706.5935     335.8883   1419.95422     706.5935     335.8883
   1419.93896     708.2966     335.5703   1419.93896     708.2966     335.5703
   1419.92371     707.8126     336.0272   1419.92371     707.8126     336.0272
   1419.90845     708.1908     335.3281   1419.90845     708.1908     335.3281
   1419.89319     708.1533     334.2392   1419.89319     708.1533     334.2392
   1419.87793     708.4965     334.3300   1419.87793     708.4965     334.3300
   1419.86267     708.1158     334.3929   1419.86267     708.1158     334.3929
   1419.84741     707.5397     334.2895   1419.84741     707.5397     334.2895
   1419.83215     707.2738     333.6837   1419.83215     707.2738     333.6837
   1419.81689     707.9178     333.4316   1419.81689     707.9178     333.4316
   1419.80164     707.3809     333.3115   1419.80164     707.3809     333.3115
   1419.78638     708.3482     333.2206   1419.78638     708.3482     333.2206
   1419.77112     707.8465     332.5974   1419.77112     707.8465     332.5974
   1419.75586     708.7911     332.9724   1419.75586     708.7911     332.9724
   1419.74060     708.8029     332.3937   1419.74060     708.8029     332.3937
   1419.72534     708.1915     332.3527   1419.72534     708.1915     332.3527
   1419.71008     708.5613     332.5634   1419.71008     708.5613     332.5634
   1419.69482     709.1420     331.7145   1419.69482     709.1420     331.7145
   1419.67957     709.7056     331.5739   1419.67957     709.7056     331.5739
   1419.66431     708.7960     331.3134   1419.66431     708.7960     331.3134
   1419.64905     709.2146     331.3773   1419.64905     709.2146     331.3773
   1419.63379     708.7379     331.3445   1419.63379     708.7379     331.3445
   1419.61853     709.7483     330.6285   1419.61853     709.7483     330.6285
   1419.60327     708.9595     331.2875   1419.60327     708.9595     331.2875
   1419.58801     709.8148     331.2901   1419.58801     709.8148     331.2901
   1419.57275     709.0620     330.3762   1419.57275     709.0620     330.3762
   1419.55750     710.3057     330.3047   1419.55750     710.3057     330.3047
   1419.54224     709.7308     329.9760   1419.54224     709.7308     329.9760
   1419.52698     710.0812     330.8163   1419.52698     710.0812     330.8163
   1419.51172     711.5725     330.4203   1419.51172     711.5725     330.4203
   1419.49646     711.1509     330.7972   1419.49646     711.1509     330.7972
   1419.48120     711.4009     330.2171   1419.48120     711.4009     330.2171
   1419.46594     710.6506     329.7163   1419.46594     710.6506     329.7163
   1419.45068     711.8799     330.4878   1419.45068     711.8799     330.4878
   1419.43542     711.8630     330.2842   1419.43542     711.8630     330.2842
   1419.42017     711.7249     330.4935   1419.42017     711.7249     330.4935
   1419.40491     711.1738     330.1611   1419.40491     711.1738     330.1611
   1419.38965     712.7070     330.8899   1419.38965     712.7070     330.8899
   1419.37439     712.3190     330.5368   1419.37439     712.3190     330.5368
   1419.35913     712.3195     331.3589   1419.35913     712.3195     331.3589
   1419.34387     714.8596     330.7929   1419.34387     714.8596     330.7929
   1419.32861     714.4826     330.3582   1419.32861     714.4826     330.3582
   1419.31335     714.2142     330.9582   1419.31335     714.2142     330.9582
   1419.29810     714.4916     331.0146   1419.29810     714.4916     331.0146
   1419.28284     715.6872     331.0069   1419.28284     715.6872     331.0069
   1419.26758     716.7118     330.6349   1419.26758     716.7118     330.6349
   1419.25232     716.2839     331.8902   1419.25232     716.2839     331.8902
   1419.23706     715.6219     331.5284   1419.23706     715.6219     331.5284
   1419.22180     716.4683     332.1898   1419.22180     716.4683     332.1898
   1419.20654     716.4767     332.3916   1419.20654     716.4767     332.3916
   1419.19128     717.1854     332.4177   1419.19128     717.1854     332.4177
   1419.17603     716.8740     332.1194   1419.17603     716.8740     332.1194
   1419.16077     718.7773     332.3979   1419.16077     718.7773     332.3979
   1419.14551     717.6091     332.3012   1419.14551     717.6091     332.3012
   1419.13025     718.8453     332.9425   1419.13025     718.8453     332.9425
   1419.11499     719.9100     333.2207   1419.11499     719.9100     333.2207
   1419.09973     720.3480     333.5084   1419.09973     720.3480     333.5084
   1419.08447     721.3546     333.6644   1419.08447     721.3546     333.6644
   1419.06921     720.9941     333.8207   1419.06921     720.9941     333.8207
   1419.05396     721.4894     334.7258   1419.05396     721.4894     334.7258
   1419.03870     721.9696     334.2646   1419.03870     721.9696     334.2646
   1419.02344     722.0275     334.5512   1419.02344     722.0275     334.5512
   1419.00818     723.4793     335.6185   1419.00818     723.4793     335.6185
   1418.99292     723.4576     335.5410   1418.99292     723.4576     335.5410
   1418.97766     724.3339     339.9634   1418.97766     724.3339     339.9634
   1418.96240     723.9131     336.2423   1418.96240     723.9131     336.2423
   1418.94714     723.6513     336.3439   1418.94714     723.6513     336.3439
   1418.93188     724.5096     336.9328   1418.93188     724.5096     336.9328
   1418.91663     725.5433     337.1226   1418.91663     725.5433     337.1226
   1418.90137     728.2483     337.4713   1418.90137     728.2483     337.4713
   1418.88611     727.0241     338.3664   1418.88611     727.0241     338.3664
   1418.87085     726.6934     338.6465   1418.87085     726.6934     338.6465
   1418.85559     728.1593     339.3023   1418.85559     728.1593     339.3023
   1418.84033     727.9618     339.1337   1418.84033     727.9618     339.1337
   1418.82507     729.1917     339.5295   1418.82507     729.1917     339.5295
   1418.80981     729.8737     340.2014   1418.80981     729.8737     340.2014
   1418.79456     729.7344     340.5839   1418.79456     729.7344     340.5839
   1418.77930     731.0128     341.1673   1418.77930     731.0128     341.1673
   1418.76404     730.8331     341.2637   1418.76404     730.8331     341.2637
   1418.74878     732.3983     342.4080   1418.74878     732.3983     342.4080
   1418.73352     732.4299     342.1128   1418.73352     732.4299     342.1128
   1418.71826     732.8600     342.8442   1418.71826     732.8600     342.8442
   1418.70300     734.0153     343.2776   1418.70300     734.0153     343.2776
   1418.68774     732.9595     344.1395   1418.68774     732.9595     344.1395
   1418.67249     735.4576     344.2520   1418.67249     735.4576     344.2520
   1418.65723     735.6083     344.7361   1418.65723     735.6083     344.7361
   1418.64197     737.5087     345.7282   1418.64197     737.5087     345.7282
   1418.62671     736.6099     346.3447   1418.62671     736.6099     346.3447
   1418.61145     739.0315     346.5898   1418.61145     739.0315     346.5898
   1418.59619     738.3917     347.1636   1418.59619     738.3917     347.1636
   1418.58093     739.0626     347.6473   1418.58093     739.0626     347.6473
   1418.56567     740.3286     348.3485   1418.56567     740.3286     348.3485
   1418.55042     740.7438     348.9001   1418.55042     740.7438     348.9001
   1418.53516     740.6287     349.4400   1418.53516     740.6287     349.4400
   1418.51990     742.6850     349.7929   1418.51990     742.6850     349.7929
   1418.50464     743.4430     351.0059   1418.50464     743.4430     351.0059
   1418.48938     745.1986     351.7439   1418.48938     745.1986     351.7439
   1418.47412     744.3545     351.7631   1418.47412     744.3545     351.7631
   1418.45886     745.9949     353.4126   1418.45886     745.9949     353.4126
   1418.44360     746.3106     353.5333   1418.44360     746.3106     353.5333
   1418.42834     746.6431     354.3109   1418.42834     746.6431     354.3109
   1418.41309     747.5026     354.6284   1418.41309     747.5026     354.6284
   1418.39783     748.1297     355.3249   1418.39783     748.1297     355.3249
   1418.38257     749.3589     356.8391   1418.38257     749.3589     356.8391
   1418.36731     749.1007     356.7067   1418.36731     749.1007     356.7067
   1418.35205     750.1485     357.9500   1418.35205     750.1485     357.9500
   1418.33679     751.7416     358.2380   1418.33679     751.7416     358.2380
   1418.32153     752.0642     358.8328   1418.32153     752.0642     358.8328
   1418.30627     752.4072     359.8093   1418.30627     752.4072     359.8093
   1418.29102     753.7744     360.3850   1418.29102     753.7744     360.3850
   1418.27576     755.1396     361.7319   1418.27576     755.1396     361.7319
   1418.26050     755.9634     362.3514   1418.26050     755.9634     362.3514
   1418.24524     756.7170     362.6812   1418.24524     756.7170     362.6812
   1418.22998     757.6644     363.7866   1418.22998     757.6644     363.7866
   1418.21472     758.1834     364.8365   1418.21472     758.1834     364.8365
   1418.19946     759.9938     365.1846   1418.19946     759.9938     365.1846
   1418.18420     759.3806     366.2170   1418.18420     759.3806     366.2170
   1418.16895     760.6714     367.6525   1418.16895     760.6714     367.6525
   1418.15369     761.9403     368.0161   1418.15369     761.9403     368.0161
   1418.13843     763.3778     369.0510   1418.13843     763.3778     369.0510
   1418.12317     764.7296     369.6875   1418.12317     764.7296     369.6875
   1418.10791     763.9811     370.4554   1418.10791     763.9811     370.4554
   1418.09265     765.7272     370.9767   1418.09265     765.7272     370.9767
   1418.07739     766.0088     372.0159   1418.07739     766.0088     372.0159
   1418.06213     768.6288     373.1837   1418.06213     768.6288     373.1837
   1418.04688     768.4386     373.3447   1418.04688     768.4386     373.3447
   1418.03162     768.7120     374.3889   1418.03162     768.7120     374.3889
   1418.01636     769.9142     375.5262   1418.01636     769.9142     375.5262
   1418.00110     770.9597     376.9687   1418.00110     770.9597     376.9687
   1417.98584     772.3429     378.0603   1417.98584     772.3429     378.0603
   1417.97058     773.0392     378.7753   1417.97058     773.0392     378.7753
   1417.95532     773.3856     379.2956   1417.95532     773.3856     379.2956
   1417.94006     774.8929     379.7446   1417.94006     774.8929     379.7446
   1417.92480     776.2998     381.4586   1417.92480     776.2998     381.4586
   1417.90955     777.1951     382.2094   1417.90955     777.1951     382.2094
   1417.89429     778.0767     383.0471   1417.89429     778.0767     383.0471
   1417.87903     778.6065     383.7840   1417.87903     778.6065     383.7840
   1417.86377     779.0569     384.9180   1417.86377     779.0569     384.9180
   1417.84851     781.1569     386.2204   1417.84851     781.1569     386.2204
   1417.83325     781.1409     386.5717   1417.83325     781.1409     386.5717
   1417.81799     783.6797     387.7883   1417.81799     783.6797     387.7883
   1417.80273     782.7690     388.3473   1417.80273     782.7690     388.3473
   1417.78748     785.6538     389.5832   1417.78748     785.6538     389.5832
   1417.77222     784.7614     391.2659   1417.77222     784.7614     391.2659
   1417.75696     788.2676     391.8792   1417.75696     788.2676     391.8792
   1417.74170     788.0157     392.3684   1417.74170     788.0157     392.3684
   1417.72644     787.6842     393.5330   1417.72644     787.6842     393.5330
   1417.71118     788.3813     394.9459   1417.71118     788.3813     394.9459
   1417.69592     789.3348     395.3068   1417.69592     789.3348     395.3068
   1417.68066     789.9016     396.1669   1417.68066     789.9016     396.1669
   1417.66541     791.0662     397.6128   1417.66541     791.0662     397.6128
   1417.65015     792.6559     398.5410   1417.65015     792.6559     398.5410
   1417.63489     793.5005     400.0124   1417.63489     793.5005     400.0124
   1417.61963     794.0707     400.7110   1417.61963     794.0707     400.7110
   1417.60437     795.5989     401.9129   1417.60437     795.5989     401.9129
   1417.58911     797.6423     403.0684   1417.58911     797.6423     403.0684
   1417.57385     797.5855     403.7380   1417.57385     797.5855     403.7380
   1417.55859     799.2543     404.3705   1417.55859     799.2543     404.3705
   1417.54333     799.1525     405.2995   1417.54333     799.1525     405.2995
   1417.52808     800.2878     406.1924   1417.52808     800.2878     406.1924
   1417.51282     802.0878     407.6799   1417.51282     802.0878     407.6799
   1417.49756     803.2881     409.0497   1417.49756     803.2881     409.0497
   1417.48230     803.8861     410.2610   1417.48230     803.8861     410.2610
   1417.46704     804.4407     410.9594   1417.46704     804.4407     410.9594
   1417.45178     804.9682     411.7556   1417.45178     804.9682     411.7556
   1417.43652     807.3970     413.4773   1417.43652     807.3970     413.4773
   1417.42126     805.3910     413.7647   1417.42126     805.3910     413.7647
   1417.40601     807.7783     415.2968   1417.40601     807.7783     415.2968
   1417.39075     809.3102     416.1832   1417.39075     809.3102     416.1832
   1417.37549     810.8154     417.4469   1417.37549     810.8154     417.4469
   1417.36023     810.2948     418.4819   1417.36023     810.2948     418.4819
   1417.34497     810.3176     419.3895   1417.34497     810.3176     419.3895
   1417.32971     812.6344     420.3529   1417.32971     812.6344     420.3529
   1417.31445     813.1675     421.4521   1417.31445     813.1675     421.4521
   1417.29919     813.6219     422.4277   1417.29919     813.6219     422.4277
   1417.28394     815.1914     423.5871   1417.28394     815.1914     423.5871
   1417.26868     815.2285     424.9521   1417.26868     815.2285     424.9521
   1417.25342     815.6586     425.2240   1417.25342     815.6586     425.2240
   1417.23816     817.0035     426.7422   1417.23816     817.0035     426.7422
   1417.22290     818.3093     427.5122   1417.22290     818.3093     427.5122
   1417.20764     819.3727     429.9194   1417.20764     819.3727     429.9194
   1417.19238     819.1018     429.3363   1417.19238     819.1018     429.3363
   1417.17712     822.0442     430.4527   1417.17712     822.0442     430.4527
   1417.16187     820.8091     431.8473   1417.16187     820.8091     431.8473
   1417.14661     821.4525     433.2317   1417.14661     821.4525     433.2317
   1417.13135     822.2815     433.2201   1417.13135     822.2815     433.2201
   1417.11609     823.2638     433.5359   1417.11609     823.2638     433.5359
   1417.10083     824.4735     435.8792   1417.10083     824.4735     435.8792
   1417.08557     826.0049     436.1740   1417.08557     826.0049     436.1740
   1417.07031     825.8607     437.6215   1417.07031     825.8607     437.6215
   1417.05505     827.0641     438.6024   1417.05505     827.0641     438.6024
   1417.03979     825.6993     438.9651   1417.03979     825.6993     438.9651
   1417.02454     825.7484     440.3581   1417.02454     825.7484     440.3581
   1417.00928     827.6635     440.5505   1417.00928     827.6635     440.5505
   1416.99402     828.5662     442.1340   1416.99402     828.5662     442.1340
   1416.97876     829.7607     442.9761   1416.97876     829.7607     442.9761
   1416.96350     829.7706     443.6663   1416.96350     829.7706     443.6663
   1416.94824     830.8205     445.0934   1416.94824     830.8205     445.0934
   1416.93298     830.8581     445.3471   1416.93298     830.8581     445.3471
   1416.91772     830.8353     446.4499   1416.91772     830.8353     446.4499
   1416.90247     832.5059     445.9816   1416.90247     832.5059     445.9816
   1416.88721     833.5231     447.3944   1416.88721     833.5231     447.3944
   1416.87195     832.0928     448.5053   1416.87195     832.0928     448.5053
   1416.85669     833.5696     448.8595   1416.85669     833.5696     448.8595
   1416.84143     834.0374     450.1362   1416.84143     834.0374     450.1362
   1416.82617     834.5576     449.7612   1416.82617     834.5576     449.7612
   1416.81091     835.2473     451.3523   1416.81091     835.2473     451.3523
   1416.79565     836.7381     452.1704   1416.79565     836.7381     452.1704
   1416.78040     835.6941     452.5605   1416.78040     835.6941     452.5605
   1416.76514     836.2653     453.7549   1416.76514     836.2653     453.7549
   1416.74988     836.8035     454.5646   1416.74988     836.8035     454.5646
   1416.73462     836.4404     455.1847   1416.73462     836.4404     455.1847
   1416.71936     836.6993     455.8927   1416.71936     836.6993     455.8927
   1416.70410     838.2451     455.7894   1416.70410     838.2451     455.7894
   1416.68884     836.0146     456.3715   1416.68884     836.0146     456.3715
   1416.67358     837.6782     456.5925   1416.67358     837.6782     456.5925
   1416.65833     838.5746     457.9019   1416.65833     838.5746     457.9019
   1416.64307     836.9511     457.9914   1416.64307     836.9511     457.9914
   1416.62781     838.9877     458.9238   1416.62781     838.9877     458.9238
   1416.61255     840.8922     458.9327   1416.61255     840.8922     458.9327
   1416.59729     842.0300     459.2811   1416.59729     842.0300     459.2811
   1416.58203     838.9009     459.7523   1416.58203     838.9009     459.7523
   1416.56677     839.8043     460.9245   1416.56677     839.8043     460.9245
   1416.55151     839.5647     460.3940   1416.55151     839.5647     460.3940
   1416.53625     838.1978     460.5648   1416.53625     838.1978     460.5648
   1416.52100     837.1283     460.9747   1416.52100     837.1283     460.9747
   1416.50574     837.9396     461.2557   1416.50574     837.9396     461.2557
   1416.49048     839.9607     462.1117   1416.49048     839.9607     462.1117
   1416.47522     837.6787     462.4696   1416.47522     837.6787     462.4696
   1416.45996     838.5679     462.5558   1416.45996     838.5679     462.5558
   1416.44470     839.2733     461.9902   1416.44470     839.2733     461.9902
   1416.42944     838.2975     461.9583   1416.42944     838.2975     461.9583
   1416.41418     840.1814     462.8405   1416.41418     840.1814     462.8405
   1416.39893     839.1445     462.8717   1416.39893     839.1445     462.8717
   1416.38367     838.8851     462.8230   1416.38367     838.8851     462.8230
   1416.36841     837.6080     462.7654   1416.36841     837.6080     462.7654
   1416.35315     837.5139     462.8178   1416.35315     837.5139     462.8178
   1416.33789     838.7502     463.3159   1416.33789     838.7502     463.3159
   1416.32263     837.1602     462.3710   1416.32263     837.1602     462.3710
   1416.30737     837.3005     462.5056   1416.30737     837.3005     462.5056
   1416.29211     836.7491     463.1185   1416.29211     836.7491     463.1185
   1416.27686     836.4196     463.1339   1416.27686     836.4196     463.1339
   1416.26160     836.0876     462.7311   1416.26160     836.0876     462.7311
   1416.24634     836.9453     462.3608   1416.24634     836.9453     462.3608
   1416.23108     836.8722     462.6468   1416.23108     836.8722     462.6468
   1416.21582     839.5882     463.3099   1416.21582     839.5882     463.3099
   1416.20056     835.6976     462.0568   1416.20056     835.6976     462.0568
   1416.18530     834.0978     462.7961   1416.18530     834.0978     462.7961
   1416.17004     834.1050     461.7538   1416.17004     834.1050     461.7538
   1416.15479     833.0742     461.0197   1416.15479     833.0742     461.0197
   1416.13953     833.2329     461.3406   1416.13953     833.2329     461.3406
   1416.12427     832.6638     461.5363   1416.12427     832.6638     461.5363
   1416.10901     832.7089     460.6842   1416.10901     832.7089     460.6842
   1416.09375     832.6487     460.5984   1416.09375     832.6487     460.5984
   1416.07849     831.4955     460.3048   1416.07849     831.4955     460.3048
   1416.06323     831.0961     460.0818   1416.06323     831.0961     460.0818
   1416.04797     830.7792     460.4001   1416.04797     830.7792     460.4001
   1416.03271     831.5304     459.1739   1416.03271     831.5304     459.1739
   1416.01746     827.7366     459.6459   1416.01746     827.7366     459.6459
   1416.00220     829.0703     458.6494   1416.00220     829.0703     458.6494
   1415.98694     827.0400     458.2346   1415.98694     827.0400     458.2346
   1415.97168     827.7354     457.9326   1415.97168     827.7354     457.9326
   1415.95642     828.1596     458.1084   1415.95642     828.1596     458.1084
   1415.94116     827.1990     457.1972   1415.94116     827.1990     457.1972
   1415.92590     825.5604     456.2642   1415.92590     825.5604     456.2642
   1415.91064     824.8933     456.3507   1415.91064     824.8933     456.3507
   1415.89539     823.6718     456.5229   1415.89539     823.6718     456.5229
   1415.88013     822.2299     455.7341   1415.88013     822.2299     455.7341
   1415.86487     823.6647     454.3739   1415.86487     823.6647     454.3739
   1415.84961     823.3723     454.6267   1415.84961     823.3723     454.6267
   1415.83435     825.8210     453.2677   1415.83435     825.8210     453.2677
   1415.81909     820.9299     453.4376   1415.81909     820.9299     453.4376
   1415.80383     821.3104     453.5393   1415.80383     821.3104     453.5393
   1415.78857     819.7573     452.6602   1415.78857     819.7573     452.6602
   1415.77332     819.1243     452.0532   1415.77332     819.1243     452.0532
   1415.75806     817.9252     451.1938   1415.75806     817.9252     451.1938
   1415.74280     817.4694     451.5253   1415.74280     817.4694     451.5253
   1415.72754     816.7562     449.9606   1415.72754     816.7562     449.9606
   1415.71228     815.6930     449.6566   1415.71228     815.6930     449.6566
   1415.69702     815.7401     449.3437   1415.69702     815.7401     449.3437
   1415.68176     814.0493     448.0096   1415.68176     814.0493     448.0096
   1415.66650     813.2864     447.0353   1415.66650     813.2864     447.0353
   1415.65125     814.0185     446.8135   1415.65125     814.0185     446.8135
   1415.63599     811.8611     446.6635   1415.63599     811.8611     446.6635
   1415.62073     810.0576     445.8991   1415.62073     810.0576     445.8991
   1415.60547     809.9525     445.9514   1415.60547     809.9525     445.9514
   1415.59021     808.5582     444.8273   1415.59021     808.5582     444.8273
   1415.57495     807.1204     443.7796   1415.57495     807.1204     443.7796
   1415.55969     804.9295     444.0746   1415.55969     804.9295     444.0746
   1415.54443     804.2963     442.8010   1415.54443     804.2963     442.8010
   1415.52917     804.3853     442.3828   1415.52917     804.3853     442.3828
   1415.51392     802.8678     441.6091   1415.51392     802.8678     441.6091
   1415.49866     803.4030     441.1730   1415.49866     803.4030     441.1730
   1415.48340     801.4301     440.3737   1415.48340     801.4301     440.3737
   1415.46814     800.7892     439.7324   1415.46814     800.7892     439.7324
   1415.45288     806.5553     438.2594   1415.45288     806.5553     438.2594
   1415.43762     798.4207     438.3375   1415.43762     798.4207     438.3375
   1415.42236     796.2422     437.2597   1415.42236     796.2422     437.2597
   1415.40710     797.1677     436.9538   1415.40710     797.1677     436.9538
   1415.39185     796.0387     435.9971   1415.39185     796.0387     435.9971
   1415.37659     793.8636     435.0893   1415.37659     793.8636     435.0893
   1415.36133     792.0162     434.5422   1415.36133     792.0162     434.5422
   1415.34607     791.2860     434.0041   1415.34607     791.2860     434.0041
   1415.33081     791.1914     433.1852   1415.33081     791.1914     433.1852
   1415.31555     788.9305     431.4525   1415.31555     788.9305     431.4525
   1415.30029     788.9775     431.2579   1415.30029     788.9775     431.2579
   1415.28503     785.5576     430.4059   1415.28503     785.5576     430.4059
   1415.26978     784.3115     429.5957   1415.26978     784.3115     429.5957
   1415.25452     783.6392     429.0921   1415.25452     783.6392     429.0921
   1415.23926     783.5287     427.8722   1415.23926     783.5287     427.8722
   1415.22400     780.7469     426.7634   1415.22400     780.7469     426.7634
   1415.20874     780.1523     426.3680   1415.20874     780.1523     426.3680
   1415.19348     778.3589     425.4607   1415.19348     778.3589     425.4607
   1415.17822     777.5263     425.2593   1415.17822     777.5263     425.2593
   1415.16296     775.2675     424.3321   1415.16296     775.2675     424.3321
   1415.14771     773.5863     423.8834   1415.14771     773.5863     423.8834
   1415.13245     772.9009     422.2341   1415.13245     772.9009     422.2341
   1415.11719     771.7595     421.2810   1415.11719     771.7595     421.2810
   1415.10193     770.1088     420.1628   1415.10193     770.1088     420.1628
   1415.08667     768.5350     420.0257   1415.08667     768.5350     420.0257
   1415.07141     767.4250     418.3947   1415.07141     767.4250     418.3947
   1415.05615     765.5015     417.9584   1415.05615     765.5015     417.9584
   1415.04089     764.6740     417.8049   1415.04089     764.6740     417.8049
   1415.02563     762.5243     416.1718   1415.02563     762.5243     416.1718
   1415.01038     760.9384     415.6323   1415.01038     760.9384     415.6323
   1414.99512     758.3887     413.9629   1414.99512     758.3887     413.9629
   1414.97986     757.4755     413.2385   1414.97986     757.4755     413.2385
   1414.96460     756.4981     412.8297   1414.96460     756.4981     412.8297
   1414.94934     754.5843     410.8724   1414.94934     754.5843     410.8724
   1414.93408     752.6626     410.3825   1414.93408     752.6626     410.3825
   1414.91882     750.8855     409.3029   1414.91882     750.8855     409.3029
   1414.90356     747.9739     408.1148   1414.90356     747.9739     408.1148
   1414.88831     746.9183     408.1262   1414.88831     746.9183     408.1262
   1414.87305     746.0336     406.4479   1414.87305     746.0336     406.4479
   1414.85779     744.3519     405.4529   1414.85779     744.3519     405.4529
   1414.84253     741.7042     404.5365   1414.84253     741.7042     404.5365
   1414.82727     739.4007     402.8434   1414.82727     739.4007     402.8434
   1414.81201     737.5119     403.1435   1414.81201     737.5119     403.1435
   1414.79675     735.4410     400.6953   1414.79675     735.4410     400.6953
   1414.78149     733.7107     399.7974   1414.78149     733.7107     399.7974
   1414.76624     731.7876     399.0918   1414.76624     731.7876     399.0918
   1414.75098     729.7486     397.7749   1414.75098     729.7486     397.7749
   1414.73572     728.4028     396.8878   1414.73572     728.4028     396.8878
   1414.72046     725.8946     396.6818   1414.72046     725.8946     396.6818
   1414.70520     724.7230     394.4939   1414.70520     724.7230     394.4939
   1414.68994     723.1217     393.3621   1414.68994     723.1217     393.3621
   1414.67468     719.7071     392.7978   1414.67468     719.7071     392.7978
   1414.65942     717.6964     391.1433   1414.65942     717.6964     391.1433
   1414.64417     716.0970     389.9684   1414.64417     716.0970     389.9684
   1414.62891     714.2405     389.3098   1414.62891     714.2405     389.3098
   1414.61365     710.9612     388.3167   1414.61365     710.9612     388.3167
   1414.59839     708.1483     387.0013   1414.59839     708.1483     387.0013
   1414.58313     706.8464     386.1209   1414.58313     706.8464     386.1209
   1414.56787     704.5645     384.8398   1414.56787     704.5645     384.8398
   1414.55261     702.5475     383.8826   1414.55261     702.5475     383.8826
   1414.53735     699.3903     382.0360   1414.53735     699.3903     382.0360
   1414.52209     698.6760     380.7784   1414.52209     698.6760     380.7784
   1414.50684     695.8033     379.6742   1414.50684     695.8033     379.6742
   1414.49158     693.9659     378.0966   1414.49158     693.9659     378.0966
   1414.47632     691.1017     377.0088   1414.47632     691.1017     377.0088
   1414.46106     689.3177     375.5212   1414.46106     689.3177     375.5212
   1414.44580     686.0242     374.4977   1414.44580     686.0242     374.4977
   1414.43054     683.5753     373.7360   1414.43054     683.5753     373.7360
   1414.41528     681.2645     371.6247   1414.41528     681.2645     371.6247
   1414.40002     678.7133     370.6609   1414.40002     678.7133     370.6609
   1414.38477     677.5802     369.6342   1414.38477     677.5802     369.6342
   1414.36951     672.4453     368.4997   1414.36951     672.4453     368.4997
   1414.35425     671.3090     366.3564   1414.35425     671.3090     366.3564
   1414.33899     668.9656     365.6163   1414.33899     668.9656     365.6163
   1414.32373     667.0869     364.0649   1414.32373     667.0869     364.0649
   1414.30847     666.1307     362.8667   1414.30847     666.1307     362.8667
   1414.29321     662.6193     361.2430   1414.29321     662.6193     361.2430
   1414.27795     659.5955     360.1440   1414.27795     659.5955     360.1440
   1414.26270     655.8557     358.9926   1414.26270     655.8557     358.9926
   1414.24744     653.6120     357.1673   1414.24744     653.6120     357.1673
   1414.23218     651.1962     356.3506   1414.23218     651.1962     356.3506
   1414.21692     647.8127     354.8915   1414.21692     647.8127     354.8915
   1414.20166     644.9361     354.0028   1414.20166     644.9361     354.0028
   1414.18640     642.9603     352.0714   1414.18640     642.9603     352.0714
   1414.17114     639.6826     350.6172   1414.17114     639.6826     350.6172
   1414.15588     637.7479     349.8008   1414.15588     637.7479     349.8008
   1414.14062     634.8306     348.0315   1414.14062     634.8306     348.0315
   1414.12537     631.7692     346.8749   1414.12537     631.7692     346.8749
   1414.11011     628.9949     345.3993   1414.11011     628.9949     345.3993
   1414.09485     625.4890     343.6700   1414.09485     625.4890     343.6700
   1414.07959     624.2177     342.1304   1414.07959     624.2177     342.1304
   1414.06433     621.0645     341.0218   1414.06433     621.0645     341.0218
   1414.04907     618.3232     340.0995   1414.04907     618.3232     340.0995
   1414.03381     614.4794     337.7972   1414.03381     614.4794     337.7972
   1414.01855     613.1534     337.1621   1414.01855     613.1534     337.1621
   1414.00330     639.3103     344.2803   1414.00330     639.3103     344.2803
   1413.98804     608.5079     334.5320   1413.98804     608.5079     334.5320
   1413.97278     603.6524     332.8159   1413.97278     603.6524     332.8159
   1413.95752     600.9700     330.6137   1413.95752     600.9700     330.6137
   1413.94226     597.6917     329.3844   1413.94226     597.6917     329.3844
   1413.92700     595.2815     328.5284   1413.92700     595.2815     328.5284
   1413.91174     592.1614     326.4955   1413.91174     592.1614     326.4955
   1413.89648     588.8063     325.2130   1413.89648     588.8063     325.2130
   1413.88123     586.3303     323.7071   1413.88123     586.3303     323.7071
   1413.86597     582.6536     322.1600   1413.86597     582.6536     322.1600
   1413.85071     579.8345     321.3685   1413.85071     579.8345     321.3685
   1413.83545     576.9688     319.0368   1413.83545     576.9688     319.0368
   1413.82019     574.2585     317.8818   1413.82019     574.2585     317.8818
   1413.80493     571.0584     316.2811   1413.80493     571.0584     316.2811
   1413.78967     567.9653     314.8646   1413.78967     567.9653     314.8646
   1413.77441     564.6602     313.9238   1413.77441     564.6602     313.9238
   1413.75916     563.0499     312.0182   1413.75916     563.0499     312.0182
   1413.74390     559.1309     310.7153   1413.74390     559.1309     310.7153
   1413.72864     556.5234     309.1786   1413.72864     556.5234     309.1786
   1413.71338     553.1673     308.0815   1413.71338     553.1673     308.0815
   1413.69812     549.8371     306.2415   1413.69812     549.8371     306.2415
   1413.68286     547.0616     304.8446   1413.68286     547.0616     304.8446
   1413.66760     544.1684     302.9573   1413.66760     544.1684     302.9573
   1413.65234     542.3137     302.3117   1413.65234     542.3137     302.3117
   1413.63708     538.4331     300.6205   1413.63708     538.4331     300.6205
   1413.62183     534.8608     299.1223   1413.62183     534.8608     299.1223
   1413.60657     532.8742     297.7692   1413.60657     532.8742     297.7692
   1413.59131     529.3892     295.7608   1413.59131     529.3892     295.7608
   1413.57605     527.0117     295.0254   1413.57605     527.0117     295.0254
   1413.56079     524.3369     293.0129   1413.56079     524.3369     293.0129
   1413.54553     521.1081     291.6547   1413.54553     521.1081     291.6547
   1413.53027     519.0174     290.5219   1413.53027     519.0174     290.5219
   1413.51501     515.4002     289.1790   1413.51501     515.4002     289.1790
   1413.49976     511.5609     287.6417   1413.49976     511.5609     287.6417
   1413.48450     509.1902     286.2640   1413.48450     509.1902     286.2640
   1413.46924     506.3315     284.6771   1413.46924     506.3315     284.6771
   1413.45398     503.9253     283.5991   1413.45398     503.9253     283.5991
   1413.43872     500.6744     282.0499   1413.43872     500.6744     282.0499
   1413.42346     497.5448     281.1868   1413.42346     497.5448     281.1868
   1413.40820     494.7296     279.9464   1413.40820     494.7296     279.9464
   1413.39294     492.7678     278.4366   1413.39294     492.7678     278.4366
   1413.37769     489.1914     276.8419   1413.37769     489.1914     276.8419
   1413.36243     486.7972     276.2037   1413.36243     486.7972     276.2037
   1413.34717     484.8380     274.4715   1413.34717     484.8380     274.4715
   1413.33191     482.1058     272.9044   1413.33191     482.1058     272.9044
   1413.31665     479.0418     271.7265   1413.31665     479.0418     271.7265
   1413.30139     476.8180     270.6802   1413.30139     476.8180     270.6802
   1413.28613     473.6097     269.3139   1413.28613     473.6097     269.3139
   1413.27087     470.4428     267.7739   1413.27087     470.4428     267.7739
   1413.25562     468.9808     266.7299   1413.25562     468.9808     266.7299
   1413.24036     465.9594     265.4616   1413.24036     465.9594     265.4616
   1413.22510     462.8027     264.6973   1413.22510     462.8027     264.6973
   1413.20984     460.4502     263.3756   1413.20984     460.4502     263.3756
   1413.19458     457.6177     261.9006   1413.19458     457.6177     261.9006
   1413.17932     455.4659     260.9150   1413.17932     455.4659     260.9150
   1413.16406     453.8724     259.8662   1413.16406     453.8724     259.8662
   1413.14880     450.9254     258.4680   1413.14880     450.9254     258.4680
   1413.13354     448.6652     258.1829   1413.13354     448.6652     258.1829
   1413.11829     445.8106     256.8001   1413.11829     445.8106     256.8001
   1413.10303     443.2220     256.0098   1413.10303     443.2220     256.0098
   1413.08777     441.5361     255.0348   1413.08777     441.5361     255.0348
   1413.07251     439.0639     253.5375   1413.07251     439.0639     253.5375
   1413.05725     436.7132     252.9276   1413.05725     436.7132     252.9276
   1413.04199     433.6166     251.6176   1413.04199     433.6166     251.6176
   1413.02673     432.6003     250.7002   1413.02673     432.6003     250.7002
   1413.01147     430.4440     250.1756   1413.01147     430.4440     250.1756
   1412.99622     428.2766     249.3578   1412.99622     428.2766     249.3578
   1412.98096     425.5631     248.0069   1412.98096     425.5631     248.0069
   1412.96570     424.4200     247.7647   1412.96570     424.4200     247.7647
   1412.95044     421.5220     246.5282   1412.95044     421.5220     246.5282
   1412.93518     419.6377     245.6450   1412.93518     419.6377     245.6450
   1412.91992     417.7858     245.1723   1412.91992     417.7858     245.1723
   1412.90466     416.2551     244.4982   1412.90466     416.2551     244.4982
   1412.88940     414.0968     243.4931   1412.88940     414.0968     243.4931
   1412.87415     412.6502     242.8286   1412.87415     412.6502     242.8286
   1412.85889     410.6932     242.4776   1412.85889     410.6932     242.4776
   1412.84363     409.0480     241.3085   1412.84363     409.0480     241.3085
   1412.82837     406.9876     241.4389   1412.82837     406.9876     241.4389
   1412.81311     405.9402     240.5683   1412.81311     405.9402     240.5683
   1412.79785     404.1988     239.7908   1412.79785     404.1988     239.7908
   1412.78259     402.7157     239.9225   1412.78259     402.7157     239.9225
   1412.76733     401.3595     238.9324   1412.76733     401.3595     238.9324
   1412.75208     399.5216     238.7702   1412.75208     399.5216     238.7702
   1412.73682     397.7662     238.0723   1412.73682     397.7662     238.0723
   1412.72156     397.1907     238.1456   1412.72156     397.1907     238.1456
   1412.70630     395.4608     237.4677   1412.70630     395.4608     237.4677
   1412.69104     394.9383     237.1302   1412.69104     394.9383     237.1302
   1412.67578     393.5119     237.0504   1412.67578     393.5119     237.0504
   1412.66052     392.4612     236.5597   1412.66052     392.4612     236.5597
   1412.64526     391.3553     236.3156   1412.64526     391.3553     236.3156
   1412.63000     389.5582     236.3599   1412.63000     389.5582     236.3599
   1412.61475     389.9243     236.3405   1412.61475     389.9243     236.3405
   1412.59949     388.1511     236.2546   1412.59949     388.1511     236.2546
   1412.58423     387.8632     236.0288   1412.58423     387.8632     236.0288
   1412.56897     386.6885     236.1129   1412.56897     386.6885     236.1129
   1412.55371     386.0857     236.3331   1412.55371     386.0857     236.3331
   1412.53845     385.3523     236.2994   1412.53845     385.3523     236.2994
   1412.52319     384.4103     235.8707   1412.52319     384.4103     235.8707
   1412.50793     383.5187     235.9563   1412.50793     383.5187     235.9563
   1412.49268     383.6325     236.2556   1412.49268     383.6325     236.2556
   1412.47742     382.8049     236.5017   1412.47742     382.8049     236.5017
   1412.46216     382.6968     236.6248   1412.46216     382.6968     236.6248
   1412.44690     382.1392     237.0851   1412.44690     382.1392     237.0851
   1412.43164     381.9124     237.4193   1412.43164     381.9124     237.4193
   1412.41638     381.9866     237.9175   1412.41638     381.9866     237.9175
   1412.40112     381.7015     238.1263   1412.40112     381.7015     238.1263
   1412.38586     381.2552     238.3912   1412.38586     381.2552     238.3912
   1412.37061     380.9407     238.9096   1412.37061     380.9407     238.9096
   1412.35535     381.3222     239.3365   1412.35535     381.3222     239.3365
   1412.34009     381.3666     240.2160   1412.34009     381.3666     240.2160
   1412.32483     381.1269     240.4749   1412.32483     381.1269     240.4749
   1412.30957     381.7615     241.1531   1412.30957     381.7615     241.1531
   1412.29431     381.3756     241.7380   1412.29431     381.3756     241.7380
   1412.27905     382.0780     242.2918   1412.27905     382.0780     242.2918
   1412.26379     382.6314     242.9707   1412.26379     382.6314     242.9707
   1412.24854     382.1957     243.7320   1412.24854     382.1957     243.7320
   1412.23328     383.0988     244.4432   1412.23328     383.0988     244.4432
   1412.21802     383.2885     245.3238   1412.21802     383.2885     245.3238
   1412.20276     384.3593     246.5182   1412.20276     384.3593     246.5182