#     FILENAME=!Skynet_57533_lach-hhg-197-2_20802_21206.cyb.fits
#     BASENAME=Skynet_57533_lach-hhg-197-2_20802_21206
#     SRC_NAME=lach-hhg-197-2
#     OBSERVER=ccmadison16_9505
#     DATE_OBS=2016-05-25T18:29:47.810
#        OBSID=20802
#      SCANNUM=21206
#          MJD=57533.7717
#          UTC=66676
#     SCANTYPE=track
#     DATAMODE=HIRES
#     TUNEFREQ=1420.0000
# Actual_FREQ1=1420.0000
# Actual_FREQ2=1420.0000
#    LO1Tuning=6870.000
#     RFFILTER=1355_1435
#        OBSBW=-15.6250
#        NCHAN=1024 
#        FOCUS=37.0709
#           RA=06:21:43.73
#          DEC=14:08:24.62
#      RA(hrs)=6.362100
#     DEC(deg)=14.140200
#    AZIM(deg)=148.167
#    ELEV(deg)=62.479
#     IFattens=10.00, 9.00
#      WARNING=None
#    TCAL_XL1=7.9635
#    TCAL_YR1=9.1340
#    TCAL_XL2=7.9635
#    TCAL_YR2=9.1340
#     TRX_XL1=11.7060
#     TRX_YR1=11.7060
#     TRX_XL2=11.7060
#     TRX_YR2=11.7060
#        TAVE=1.0000
#Freq1(MHz)          XL1          YR1  Freq2(MHz)          XL2          YR2 

   1427.81250     364.2833     258.9026   1427.81250     364.2833     258.9026
   1427.79724     364.4099     259.4875   1427.79724     364.4099     259.4875
   1427.78198     365.7085     260.8314   1427.78198     365.7085     260.8314
   1427.76672     366.0692     261.6252   1427.76672     366.0692     261.6252
   1427.75146     366.6244     262.7364   1427.75146     366.6244     262.7364
   1427.73621     368.1119     263.1712   1427.73621     368.1119     263.1712
   1427.72095     368.1767     264.5620   1427.72095     368.1767     264.5620
   1427.70569     369.3410     265.6504   1427.70569     369.3410     265.6504
   1427.69043     370.2431     266.9391   1427.69043     370.2431     266.9391
   1427.67517     371.0630     267.9987   1427.67517     371.0630     267.9987
   1427.65991     371.9999     269.1638   1427.65991     371.9999     269.1638
   1427.64465     373.3015     270.8245   1427.64465     373.3015     270.8245
   1427.62939     374.6371     271.7044   1427.62939     374.6371     271.7044
   1427.61414     375.6398     272.4978   1427.61414     375.6398     272.4978
   1427.59888     376.9953     274.3015   1427.59888     376.9953     274.3015
   1427.58362     377.1146     275.8261   1427.58362     377.1146     275.8261
   1427.56836     379.9236     277.0542   1427.56836     379.9236     277.0542
   1427.55310     381.1793     278.9077   1427.55310     381.1793     278.9077
   1427.53784     382.1875     279.4919   1427.53784     382.1875     279.4919
   1427.52258     383.3696     280.9841   1427.52258     383.3696     280.9841
   1427.50732     385.0761     282.8815   1427.50732     385.0761     282.8815
   1427.49207     386.9325     283.8550   1427.49207     386.9325     283.8550
   1427.47681     388.2877     285.3175   1427.47681     388.2877     285.3175
   1427.46155     389.9903     287.1830   1427.46155     389.9903     287.1830
   1427.44629     391.8418     288.5236   1427.44629     391.8418     288.5236
   1427.43103     393.7855     290.4307   1427.43103     393.7855     290.4307
   1427.41577     395.4554     291.8510   1427.41577     395.4554     291.8510
   1427.40051     397.8141     293.4749   1427.40051     397.8141     293.4749
   1427.38525     399.8359     295.0482   1427.38525     399.8359     295.0482
   1427.37000     402.2177     296.8488   1427.37000     402.2177     296.8488
   1427.35474     403.4128     298.9942   1427.35474     403.4128     298.9942
   1427.33948     405.9175     300.2851   1427.33948     405.9175     300.2851
   1427.32422     407.9362     302.2030   1427.32422     407.9362     302.2030
   1427.30896     410.2611     303.8216   1427.30896     410.2611     303.8216
   1427.29370     412.5269     305.2567   1427.29370     412.5269     305.2567
   1427.27844     415.1118     307.1453   1427.27844     415.1118     307.1453
   1427.26318     416.8410     309.3866   1427.26318     416.8410     309.3866
   1427.24792     419.1385     311.1052   1427.24792     419.1385     311.1052
   1427.23267     422.2694     312.7980   1427.23267     422.2694     312.7980
   1427.21741     424.4771     314.1873   1427.21741     424.4771     314.1873
   1427.20215     427.0062     316.3544   1427.20215     427.0062     316.3544
   1427.18689     429.1250     318.4069   1427.18689     429.1250     318.4069
   1427.17163     432.7137     319.5519   1427.17163     432.7137     319.5519
   1427.15637     435.1210     322.3846   1427.15637     435.1210     322.3846
   1427.14111     437.5075     323.9696   1427.14111     437.5075     323.9696
   1427.12585     439.9354     325.7762   1427.12585     439.9354     325.7762
   1427.11060     443.3947     327.6654   1427.11060     443.3947     327.6654
   1427.09534     445.7839     329.8712   1427.09534     445.7839     329.8712
   1427.08008     448.4094     331.8656   1427.08008     448.4094     331.8656
   1427.06482     450.9283     333.5427   1427.06482     450.9283     333.5427
   1427.04956     453.4243     335.5897   1427.04956     453.4243     335.5897
   1427.03430     456.3004     337.8887   1427.03430     456.3004     337.8887
   1427.01904     459.5804     340.3623   1427.01904     459.5804     340.3623
   1427.00378     461.4797     341.6114   1427.00378     461.4797     341.6114
   1426.98853     465.2238     343.7655   1426.98853     465.2238     343.7655
   1426.97327     468.8226     345.7909   1426.97327     468.8226     345.7909
   1426.95801     471.4539     347.7759   1426.95801     471.4539     347.7759
   1426.94275     474.6029     349.0475   1426.94275     474.6029     349.0475
   1426.92749     476.9769     351.7008   1426.92749     476.9769     351.7008
   1426.91223     481.5999     353.7661   1426.91223     481.5999     353.7661
   1426.89697     483.8287     355.2892   1426.89697     483.8287     355.2892
   1426.88171     486.8929     358.1616   1426.88171     486.8929     358.1616
   1426.86646     489.3744     359.9588   1426.86646     489.3744     359.9588
   1426.85120     493.7659     361.4878   1426.85120     493.7659     361.4878
   1426.83594     496.9936     363.5444   1426.83594     496.9936     363.5444
   1426.82068     498.6386     365.2963   1426.82068     498.6386     365.2963
   1426.80542     502.9803     367.3366   1426.80542     502.9803     367.3366
   1426.79016     507.2602     369.4869   1426.79016     507.2602     369.4869
   1426.77490     508.8743     371.2188   1426.77490     508.8743     371.2188
   1426.75964     512.5083     373.2336   1426.75964     512.5083     373.2336
   1426.74438     516.4713     375.5113   1426.74438     516.4713     375.5113
   1426.72913     519.2599     377.1113   1426.72913     519.2599     377.1113
   1426.71387     522.7558     379.4297   1426.71387     522.7558     379.4297
   1426.69861     525.2108     381.3377   1426.69861     525.2108     381.3377
   1426.68335     529.9968     383.2104   1426.68335     529.9968     383.2104
   1426.66809     531.9808     385.6656   1426.66809     531.9808     385.6656
   1426.65283     535.5566     386.7218   1426.65283     535.5566     386.7218
   1426.63757     538.8362     389.3441   1426.63757     538.8362     389.3441
   1426.62231     543.9424     397.0020   1426.62231     543.9424     397.0020
   1426.60706     545.9677     395.4165   1426.60706     545.9677     395.4165
   1426.59180     549.6642     395.3577   1426.59180     549.6642     395.3577
   1426.57654     553.4041     396.5164   1426.57654     553.4041     396.5164
   1426.56128     556.6425     398.8616   1426.56128     556.6425     398.8616
   1426.54602     559.1362     400.9117   1426.54602     559.1362     400.9117
   1426.53076     562.8210     402.7611   1426.53076     562.8210     402.7611
   1426.51550     565.7028     404.1412   1426.51550     565.7028     404.1412
   1426.50024     569.5325     405.8192   1426.50024     569.5325     405.8192
   1426.48499     572.6506     408.2802   1426.48499     572.6506     408.2802
   1426.46973     575.2377     409.6033   1426.46973     575.2377     409.6033
   1426.45447     579.0608     411.3133   1426.45447     579.0608     411.3133
   1426.43921     582.4179     412.8650   1426.43921     582.4179     412.8650
   1426.42395     585.4567     414.6155   1426.42395     585.4567     414.6155
   1426.40869     588.9268     416.5476   1426.40869     588.9268     416.5476
   1426.39343     593.1794     418.6105   1426.39343     593.1794     418.6105
   1426.37817     595.4941     420.3549   1426.37817     595.4941     420.3549
   1426.36292     598.5380     422.1146   1426.36292     598.5380     422.1146
   1426.34766     602.7684     423.6858   1426.34766     602.7684     423.6858
   1426.33240     605.1487     425.6351   1426.33240     605.1487     425.6351
   1426.31714     609.1505     427.2427   1426.31714     609.1505     427.2427
   1426.30188     611.8201     428.6003   1426.30188     611.8201     428.6003
   1426.28662     615.7632     430.0123   1426.28662     615.7632     430.0123
   1426.27136     618.3994     431.8456   1426.27136     618.3994     431.8456
   1426.25610     620.9883     433.3928   1426.25610     620.9883     433.3928
   1426.24084     624.0107     434.8914   1426.24084     624.0107     434.8914
   1426.22559     627.6611     436.0249   1426.22559     627.6611     436.0249
   1426.21033     630.6146     438.3575   1426.21033     630.6146     438.3575
   1426.19507     634.7624     439.2747   1426.19507     634.7624     439.2747
   1426.17981     636.3949     440.7720   1426.17981     636.3949     440.7720
   1426.16455     640.6014     441.7749   1426.16455     640.6014     441.7749
   1426.14929     643.3070     443.5828   1426.14929     643.3070     443.5828
   1426.13403     645.6671     445.5901   1426.13403     645.6671     445.5901
   1426.11877     648.3226     446.8787   1426.11877     648.3226     446.8787
   1426.10352     651.9121     447.8378   1426.10352     651.9121     447.8378
   1426.08826     655.9606     449.7439   1426.08826     655.9606     449.7439
   1426.07300     657.6855     450.9178   1426.07300     657.6855     450.9178
   1426.05774     660.8051     451.6020   1426.05774     660.8051     451.6020
   1426.04248     662.1020     453.6048   1426.04248     662.1020     453.6048
   1426.02722     666.8986     454.3347   1426.02722     666.8986     454.3347
   1426.01196     669.4642     455.0764   1426.01196     669.4642     455.0764
   1425.99670     673.0793     457.2122   1425.99670     673.0793     457.2122
   1425.98145     673.9241     458.4105   1425.98145     673.9241     458.4105
   1425.96619     676.3981     460.3771   1425.96619     676.3981     460.3771
   1425.95093     680.2026     461.5974   1425.95093     680.2026     461.5974
   1425.93567     682.2587     461.3494   1425.93567     682.2587     461.3494
   1425.92041     685.1453     464.1478   1425.92041     685.1453     464.1478
   1425.90515     688.4583     464.9099   1425.90515     688.4583     464.9099
   1425.88989     689.8456     465.9294   1425.88989     689.8456     465.9294
   1425.87463     692.7902     466.7651   1425.87463     692.7902     466.7651
   1425.85938     695.1974     468.8315   1425.85938     695.1974     468.8315
   1425.84412     699.1454     469.7986   1425.84412     699.1454     469.7986
   1425.82886     699.5212     470.4042   1425.82886     699.5212     470.4042
   1425.81360     703.0178     472.1680   1425.81360     703.0178     472.1680
   1425.79834     704.0991     472.8119   1425.79834     704.0991     472.8119
   1425.78308     707.1255     473.5025   1425.78308     707.1255     473.5025
   1425.76782     710.8975     474.6582   1425.76782     710.8975     474.6582
   1425.75256     711.9167     476.0978   1425.75256     711.9167     476.0978
   1425.73730     714.7745     477.0367   1425.73730     714.7745     477.0367
   1425.72205     715.9357     477.0727   1425.72205     715.9357     477.0727
   1425.70679     717.9622     479.1771   1425.70679     717.9622     479.1771
   1425.69153     720.1569     479.3508   1425.69153     720.1569     479.3508
   1425.67627     721.0649     480.7116   1425.67627     721.0649     480.7116
   1425.66101     724.7269     481.9456   1425.66101     724.7269     481.9456
   1425.64575     726.2123     483.2687   1425.64575     726.2123     483.2687
   1425.63049     728.7058     484.6646   1425.63049     728.7058     484.6646
   1425.61523     730.6153     483.5287   1425.61523     730.6153     483.5287
   1425.59998     732.6849     484.8725   1425.59998     732.6849     484.8725
   1425.58472     733.8032     486.3315   1425.58472     733.8032     486.3315
   1425.56946     735.6196     487.3525   1425.56946     735.6196     487.3525
   1425.55420     737.8908     487.7006   1425.55420     737.8908     487.7006
   1425.53894     739.6705     488.3165   1425.53894     739.6705     488.3165
   1425.52368     741.9609     490.4773   1425.52368     741.9609     490.4773
   1425.50842     742.2257     489.5513   1425.50842     742.2257     489.5513
   1425.49316     743.7631     490.6118   1425.49316     743.7631     490.6118
   1425.47791     746.8092     491.4834   1425.47791     746.8092     491.4834
   1425.46265     747.1754     492.1276   1425.46265     747.1754     492.1276
   1425.44739     749.2227     493.1941   1425.44739     749.2227     493.1941
   1425.43213     750.2522     493.9732   1425.43213     750.2522     493.9732
   1425.41687     754.4592     494.5481   1425.41687     754.4592     494.5481
   1425.40161     752.7887     495.4699   1425.40161     752.7887     495.4699
   1425.38635     756.5645     496.4339   1425.38635     756.5645     496.4339
   1425.37109     757.1474     497.7978   1425.37109     757.1474     497.7978
   1425.35583     757.3271     496.6269   1425.35583     757.3271     496.6269
   1425.34058     759.4921     498.2326   1425.34058     759.4921     498.2326
   1425.32532     760.7619     499.1797   1425.32532     760.7619     499.1797
   1425.31006     761.7352     499.5602   1425.31006     761.7352     499.5602
   1425.29480     763.2238     501.2414   1425.29480     763.2238     501.2414
   1425.27954     763.3696     501.4100   1425.27954     763.3696     501.4100
   1425.26428     764.1550     501.9683   1425.26428     764.1550     501.9683
   1425.24902     765.3121     501.9774   1425.24902     765.3121     501.9774
   1425.23376     766.4624     503.3903   1425.23376     766.4624     503.3903
   1425.21851     768.2591     503.0367   1425.21851     768.2591     503.0367
   1425.20325     768.5471     504.0617   1425.20325     768.5471     504.0617
   1425.18799     768.9128     504.9508   1425.18799     768.9128     504.9508
   1425.17273     771.2466     505.3594   1425.17273     771.2466     505.3594
   1425.15747     771.1526     506.3175   1425.15747     771.1526     506.3175
   1425.14221     772.7453     506.2313   1425.14221     772.7453     506.2313
   1425.12695     774.0145     506.6526   1425.12695     774.0145     506.6526
   1425.11169     773.4493     507.0704   1425.11169     773.4493     507.0704
   1425.09644     773.4561     507.6535   1425.09644     773.4561     507.6535
   1425.08118     774.2673     508.1877   1425.08118     774.2673     508.1877
   1425.06592     774.8697     509.5530   1425.06592     774.8697     509.5530
   1425.05066     777.4957     509.7417   1425.05066     777.4957     509.7417
   1425.03540     776.8784     509.7305   1425.03540     776.8784     509.7305
   1425.02014     778.3185     510.6507   1425.02014     778.3185     510.6507
   1425.00488     778.7894     511.0221   1425.00488     778.7894     511.0221
   1424.98962     779.1848     511.1430   1424.98962     779.1848     511.1430
   1424.97437     778.6824     511.5942   1424.97437     778.6824     511.5942
   1424.95911     780.1222     512.0488   1424.95911     780.1222     512.0488
   1424.94385     781.7689     512.8383   1424.94385     781.7689     512.8383
   1424.92859     779.0393     512.9289   1424.92859     779.0393     512.9289
   1424.91333     781.1637     513.0316   1424.91333     781.1637     513.0316
   1424.89807     780.6451     513.6615   1424.89807     780.6451     513.6615
   1424.88281     780.2635     513.7247   1424.88281     780.2635     513.7247
   1424.86755     781.3919     514.7628   1424.86755     781.3919     514.7628
   1424.85229     781.6256     514.6786   1424.85229     781.6256     514.6786
   1424.83704     781.4438     515.0789   1424.83704     781.4438     515.0789
   1424.82178     781.1975     515.2516   1424.82178     781.1975     515.2516
   1424.80652     781.7919     515.3560   1424.80652     781.7919     515.3560
   1424.79126     782.4542     516.5952   1424.79126     782.4542     516.5952
   1424.77600     782.1360     516.4310   1424.77600     782.1360     516.4310
   1424.76074     782.3968     516.5870   1424.76074     782.3968     516.5870
   1424.74548     781.3982     516.8493   1424.74548     781.3982     516.8493
   1424.73022     782.9830     517.0757   1424.73022     782.9830     517.0757
   1424.71497     781.4801     517.2218   1424.71497     781.4801     517.2218
   1424.69971     780.8790     517.7054   1424.69971     780.8790     517.7054
   1424.68445     781.9024     517.9446   1424.68445     781.9024     517.9446
   1424.66919     781.7736     518.8384   1424.66919     781.7736     518.8384
   1424.65393     781.3047     518.6973   1424.65393     781.3047     518.6973
   1424.63867     780.6295     518.6105   1424.63867     780.6295     518.6105
   1424.62341     780.8734     519.1207   1424.62341     780.8734     519.1207
   1424.60815     779.5942     519.0038   1424.60815     779.5942     519.0038
   1424.59290     782.0313     519.6969   1424.59290     782.0313     519.6969
   1424.57764     781.6788     518.7653   1424.57764     781.6788     518.7653
   1424.56238     780.8802     519.8207   1424.56238     780.8802     519.8207
   1424.54712     779.0524     519.9324   1424.54712     779.0524     519.9324
   1424.53186     779.1106     520.4608   1424.53186     779.1106     520.4608
   1424.51660     779.9453     520.2562   1424.51660     779.9453     520.2562
   1424.50134     778.9694     520.2247   1424.50134     778.9694     520.2247
   1424.48608     778.7020     521.1833   1424.48608     778.7020     521.1833
   1424.47083     777.9066     520.2705   1424.47083     777.9066     520.2705
   1424.45557     777.4102     521.6532   1424.45557     777.4102     521.6532
   1424.44031     776.2548     521.0212   1424.44031     776.2548     521.0212
   1424.42505     777.7451     522.0420   1424.42505     777.7451     522.0420
   1424.40979     774.8965     521.5615   1424.40979     774.8965     521.5615
   1424.39453     776.4609     521.4099   1424.39453     776.4609     521.4099
   1424.37927     775.0865     521.9216   1424.37927     775.0865     521.9216
   1424.36401     773.9894     522.5567   1424.36401     773.9894     522.5567
   1424.34875     774.5189     522.1733   1424.34875     774.5189     522.1733
   1424.33350     773.6451     522.4836   1424.33350     773.6451     522.4836
   1424.31824     773.4430     522.2023   1424.31824     773.4430     522.2023
   1424.30298     772.2944     522.2347   1424.30298     772.2944     522.2347
   1424.28772     772.9227     522.1380   1424.28772     772.9227     522.1380
   1424.27246     771.9006     522.7382   1424.27246     771.9006     522.7382
   1424.25720     771.4083     522.4546   1424.25720     771.4083     522.4546
   1424.24194     772.0676     521.7004   1424.24194     772.0676     521.7004
   1424.22668     769.4614     522.9114   1424.22668     769.4614     522.9114
   1424.21143     769.6295     521.8624   1424.21143     769.6295     521.8624
   1424.19617     768.6575     523.1827   1424.19617     768.6575     523.1827
   1424.18091     767.9610     522.5104   1424.18091     767.9610     522.5104
   1424.16565     767.6710     522.8373   1424.16565     767.6710     522.8373
   1424.15039     765.3619     522.2913   1424.15039     765.3619     522.2913
   1424.13513     765.5753     522.2532   1424.13513     765.5753     522.2532
   1424.11987     764.4413     522.7607   1424.11987     764.4413     522.7607
   1424.10461     765.4250     522.5245   1424.10461     765.4250     522.5245
   1424.08936     763.8983     522.1877   1424.08936     763.8983     522.1877
   1424.07410     764.2502     521.2471   1424.07410     764.2502     521.2471
   1424.05884     762.1249     521.0723   1424.05884     762.1249     521.0723
   1424.04358     761.3198     522.8327   1424.04358     761.3198     522.8327
   1424.02832     761.2767     521.7770   1424.02832     761.2767     521.7770
   1424.01306     760.9792     521.9381   1424.01306     760.9792     521.9381
   1423.99780     761.1748     521.6581   1423.99780     761.1748     521.6581
   1423.98254     759.3812     521.3015   1423.98254     759.3812     521.3015
   1423.96729     758.2015     521.2457   1423.96729     758.2015     521.2457
   1423.95203     757.8545     521.5931   1423.95203     757.8545     521.5931
   1423.93677     756.8579     521.7664   1423.93677     756.8579     521.7664
   1423.92151     755.3010     521.6500   1423.92151     755.3010     521.6500
   1423.90625     755.5322     521.5003   1423.90625     755.5322     521.5003
   1423.89099     754.7455     521.4795   1423.89099     754.7455     521.4795
   1423.87573     754.5490     520.1978   1423.87573     754.5490     520.1978
   1423.86047     753.3571     520.7721   1423.86047     753.3571     520.7721
   1423.84521     752.4235     520.7330   1423.84521     752.4235     520.7330
   1423.82996     752.1448     520.4385   1423.82996     752.1448     520.4385
   1423.81470     752.4240     520.7689   1423.81470     752.4240     520.7689
   1423.79944     749.7297     519.9977   1423.79944     749.7297     519.9977
   1423.78418     749.2124     520.0645   1423.78418     749.2124     520.0645
   1423.76892     749.1813     519.2160   1423.76892     749.1813     519.2160
   1423.75366     747.3298     519.4359   1423.75366     747.3298     519.4359
   1423.73840     746.7095     519.2389   1423.73840     746.7095     519.2389
   1423.72314     747.4449     518.9597   1423.72314     747.4449     518.9597
   1423.70789     745.1999     520.0256   1423.70789     745.1999     520.0256
   1423.69263     745.5851     519.3049   1423.69263     745.5851     519.3049
   1423.67737     744.8635     518.1711   1423.67737     744.8635     518.1711
   1423.66211     744.9989     518.6398   1423.66211     744.9989     518.6398
   1423.64685     741.8546     518.3115   1423.64685     741.8546     518.3115
   1423.63159     742.4011     517.8934   1423.63159     742.4011     517.8934
   1423.61633     741.1083     517.2953   1423.61633     741.1083     517.2953
   1423.60107     739.4186     517.1376   1423.60107     739.4186     517.1376
   1423.58582     739.8685     516.7708   1423.58582     739.8685     516.7708
   1423.57056     739.7344     517.4788   1423.57056     739.7344     517.4788
   1423.55530     738.8240     516.4634   1423.55530     738.8240     516.4634
   1423.54004     736.8641     515.2670   1423.54004     736.8641     515.2670
   1423.52478     737.6705     514.8292   1423.52478     737.6705     514.8292
   1423.50952     735.4895     516.0999   1423.50952     735.4895     516.0999
   1423.49426     734.3024     515.3099   1423.49426     734.3024     515.3099
   1423.47900     734.6953     514.5955   1423.47900     734.6953     514.5955
   1423.46375     734.4819     513.8401   1423.46375     734.4819     513.8401
   1423.44849     732.9959     513.8391   1423.44849     732.9959     513.8391
   1423.43323     732.1610     513.3108   1423.43323     732.1610     513.3108
   1423.41797     731.4268     512.6274   1423.41797     731.4268     512.6274
   1423.40271     730.0543     513.1041   1423.40271     730.0543     513.1041
   1423.38745     729.8645     511.3739   1423.38745     729.8645     511.3739
   1423.37219     728.9462     511.0952   1423.37219     728.9462     511.0952
   1423.35693     729.7996     511.6709   1423.35693     729.7996     511.6709
   1423.34167     727.6795     511.1190   1423.34167     727.6795     511.1190
   1423.32642     727.7054     510.7581   1423.32642     727.7054     510.7581
   1423.31116     728.1381     510.1335   1423.31116     728.1381     510.1335
   1423.29590     726.0711     510.1165   1423.29590     726.0711     510.1165
   1423.28064     726.4239     507.6597   1423.28064     726.4239     507.6597
   1423.26538     726.0342     507.4248   1423.26538     726.0342     507.4248
   1423.25012     724.2310     507.9495   1423.25012     724.2310     507.9495
   1423.23486     723.6923     507.6812   1423.23486     723.6923     507.6812
   1423.21960     723.8605     507.3156   1423.21960     723.8605     507.3156
   1423.20435     723.3358     506.2700   1423.20435     723.3358     506.2700
   1423.18909     721.2308     506.2444   1423.18909     721.2308     506.2444
   1423.17383     720.9929     505.3389   1423.17383     720.9929     505.3389
   1423.15857     720.7371     504.8779   1423.15857     720.7371     504.8779
   1423.14331     720.0385     505.0316   1423.14331     720.0385     505.0316
   1423.12805     719.5596     502.7948   1423.12805     719.5596     502.7948
   1423.11279     718.2631     503.4095   1423.11279     718.2631     503.4095
   1423.09753     717.2682     503.1059   1423.09753     717.2682     503.1059
   1423.08228     718.1693     502.2917   1423.08228     718.1693     502.2917
   1423.06702     717.3975     501.8110   1423.06702     717.3975     501.8110
   1423.05176     716.3494     501.2265   1423.05176     716.3494     501.2265
   1423.03650     716.0646     500.2881   1423.03650     716.0646     500.2881
   1423.02124     716.5201     499.8754   1423.02124     716.5201     499.8754
   1423.00598     716.2838     498.7739   1423.00598     716.2838     498.7739
   1422.99072     713.7266     498.2751   1422.99072     713.7266     498.2751
   1422.97546     715.3024     497.6524   1422.97546     715.3024     497.6524
   1422.96021     713.6461     497.5817   1422.96021     713.6461     497.5817
   1422.94495     713.1923     497.2176   1422.94495     713.1923     497.2176
   1422.92969     711.3660     496.6122   1422.92969     711.3660     496.6122
   1422.91443     711.6923     495.2684   1422.91443     711.6923     495.2684
   1422.89917     711.9178     494.5865   1422.89917     711.9178     494.5865
   1422.88391     710.5314     494.6400   1422.88391     710.5314     494.6400
   1422.86865     711.3647     493.2272   1422.86865     711.3647     493.2272
   1422.85339     711.1234     493.4921   1422.85339     711.1234     493.4921
   1422.83813     709.3195     492.6472   1422.83813     709.3195     492.6472
   1422.82288     709.1573     491.4045   1422.82288     709.1573     491.4045
   1422.80762     709.3149     490.0140   1422.80762     709.3149     490.0140
   1422.79236     708.3723     489.7648   1422.79236     708.3723     489.7648
   1422.77710     708.2247     489.0696   1422.77710     708.2247     489.0696
   1422.76184     708.8923     488.9438   1422.76184     708.8923     488.9438
   1422.74658     707.0508     487.8126   1422.74658     707.0508     487.8126
   1422.73132     706.8754     486.4984   1422.73132     706.8754     486.4984
   1422.71606     706.1693     487.0395   1422.71606     706.1693     487.0395
   1422.70081     705.4832     485.2903   1422.70081     705.4832     485.2903
   1422.68555     705.9821     484.8290   1422.68555     705.9821     484.8290
   1422.67029     706.4327     484.4872   1422.67029     706.4327     484.4872
   1422.65503     705.0419     483.6101   1422.65503     705.0419     483.6101
   1422.63977     703.6251     482.7644   1422.63977     703.6251     482.7644
   1422.62451     703.7049     481.5231   1422.62451     703.7049     481.5231
   1422.60925     704.7025     481.0232   1422.60925     704.7025     481.0232
   1422.59399     704.2552     480.0197   1422.59399     704.2552     480.0197
   1422.57874     702.8548     479.4249   1422.57874     702.8548     479.4249
   1422.56348     703.1133     478.5873   1422.56348     703.1133     478.5873
   1422.54822     702.2604     477.7458   1422.54822     702.2604     477.7458
   1422.53296     701.6527     477.3862   1422.53296     701.6527     477.3862
   1422.51770     701.9973     477.4908   1422.51770     701.9973     477.4908
   1422.50244     701.7857     475.7433   1422.50244     701.7857     475.7433
   1422.48718     701.6355     474.3639   1422.48718     701.6355     474.3639
   1422.47192     700.6313     473.7589   1422.47192     700.6313     473.7589
   1422.45667     701.1019     472.8883   1422.45667     701.1019     472.8883
   1422.44141     700.0881     472.3691   1422.44141     700.0881     472.3691
   1422.42615     699.6456     470.1414   1422.42615     699.6456     470.1414
   1422.41089     699.6054     470.3755   1422.41089     699.6054     470.3755
   1422.39563     700.4418     469.5031   1422.39563     700.4418     469.5031
   1422.38037     699.5383     468.3264   1422.38037     699.5383     468.3264
   1422.36511     699.1309     467.5944   1422.36511     699.1309     467.5944
   1422.34985     699.0613     467.6284   1422.34985     699.0613     467.6284
   1422.33459     697.8969     465.6190   1422.33459     697.8969     465.6190
   1422.31934     699.8818     465.0377   1422.31934     699.8818     465.0377
   1422.30408     698.1746     463.6456   1422.30408     698.1746     463.6456
   1422.28882     699.0690     462.2589   1422.28882     699.0690     462.2589
   1422.27356     698.0781     462.9014   1422.27356     698.0781     462.9014
   1422.25830     698.5411     461.3837   1422.25830     698.5411     461.3837
   1422.24304     697.8186     461.5050   1422.24304     697.8186     461.5050
   1422.22778     696.9740     459.3526   1422.22778     696.9740     459.3526
   1422.21252     695.5587     459.0879   1422.21252     695.5587     459.0879
   1422.19727     697.2133     458.0538   1422.19727     697.2133     458.0538
   1422.18201     696.9677     457.3921   1422.18201     696.9677     457.3921
   1422.16675     695.4835     456.5633   1422.16675     695.4835     456.5633
   1422.15149     695.6702     455.5486   1422.15149     695.6702     455.5486
   1422.13623     695.6257     454.6269   1422.13623     695.6257     454.6269
   1422.12097     695.5127     452.8267   1422.12097     695.5127     452.8267
   1422.10571     695.3662     451.5941   1422.10571     695.3662     451.5941
   1422.09045     695.9816     451.4079   1422.09045     695.9816     451.4079
   1422.07520     694.9105     450.6532   1422.07520     694.9105     450.6532
   1422.05994     695.2291     450.0702   1422.05994     695.2291     450.0702
   1422.04468     694.4590     448.5149   1422.04468     694.4590     448.5149
   1422.02942     694.8726     447.7981   1422.02942     694.8726     447.7981
   1422.01416     694.6148     446.6813   1422.01416     694.6148     446.6813
   1421.99890     696.4655     445.5749   1421.99890     696.4655     445.5749
   1421.98364     694.3372     445.0381   1421.98364     694.3372     445.0381
   1421.96838     693.8323     443.9667   1421.96838     693.8323     443.9667
   1421.95312     694.1152     442.7642   1421.95312     694.1152     442.7642
   1421.93787     693.0331     441.8723   1421.93787     693.0331     441.8723
   1421.92261     693.4948     440.6208   1421.92261     693.4948     440.6208
   1421.90735     694.0629     439.8684   1421.90735     694.0629     439.8684
   1421.89209     693.4266     438.7873   1421.89209     693.4266     438.7873
   1421.87683     693.4672     438.0808   1421.87683     693.4672     438.0808
   1421.86157     693.0681     437.0658   1421.86157     693.0681     437.0658
   1421.84631     692.9406     436.1425   1421.84631     692.9406     436.1425
   1421.83105     693.3485     434.8009   1421.83105     693.3485     434.8009
   1421.81580     692.0189     433.5773   1421.81580     692.0189     433.5773
   1421.80054     691.4612     433.5215   1421.80054     691.4612     433.5215
   1421.78528     691.7974     432.1902   1421.78528     691.7974     432.1902
   1421.77002     692.7693     431.1802   1421.77002     692.7693     431.1802
   1421.75476     691.3533     429.6447   1421.75476     691.3533     429.6447
   1421.73950     690.8513     428.6964   1421.73950     690.8513     428.6964
   1421.72424     691.2714     428.5697   1421.72424     691.2714     428.5697
   1421.70898     691.2860     427.7451   1421.70898     691.2860     427.7451
   1421.69373     690.7155     426.6999   1421.69373     690.7155     426.6999
   1421.67847     691.8093     425.8921   1421.67847     691.8093     425.8921
   1421.66321     690.5450     424.5314   1421.66321     690.5450     424.5314
   1421.64795     690.7894     423.0834   1421.64795     690.7894     423.0834
   1421.63269     690.4166     422.2722   1421.63269     690.4166     422.2722
   1421.61743     689.9090     421.4474   1421.61743     689.9090     421.4474
   1421.60217     689.7858     420.4265   1421.60217     689.7858     420.4265
   1421.58691     690.4677     419.0832   1421.58691     690.4677     419.0832
   1421.57166     689.5780     418.5696   1421.57166     689.5780     418.5696
   1421.55640     689.1003     417.1773   1421.55640     689.1003     417.1773
   1421.54114     688.5165     416.6595   1421.54114     688.5165     416.6595
   1421.52588     689.0558     415.5598   1421.52588     689.0558     415.5598
   1421.51062     689.3704     414.1951   1421.51062     689.3704     414.1951
   1421.49536     689.4554     414.3293   1421.49536     689.4554     414.3293
   1421.48010     689.2244     412.8899   1421.48010     689.2244     412.8899
   1421.46484     688.5300     412.2815   1421.46484     688.5300     412.2815
   1421.44958     688.0551     410.9380   1421.44958     688.0551     410.9380
   1421.43433     688.3164     409.7144   1421.43433     688.3164     409.7144
   1421.41907     686.8456     408.3982   1421.41907     686.8456     408.3982
   1421.40381     687.8301     408.5497   1421.40381     687.8301     408.5497
   1421.38855     688.3715     406.5681   1421.38855     688.3715     406.5681
   1421.37329     686.6554     406.2942   1421.37329     686.6554     406.2942
   1421.35803     687.0219     405.3465   1421.35803     687.0219     405.3465
   1421.34277     686.5726     404.4362   1421.34277     686.5726     404.4362
   1421.32751     687.0742     403.3039   1421.32751     687.0742     403.3039
   1421.31226     687.7363     402.1387   1421.31226     687.7363     402.1387
   1421.29700     685.5306     401.1868   1421.29700     685.5306     401.1868
   1421.28174     685.6854     400.1340   1421.28174     685.6854     400.1340
   1421.26648     686.0978     399.5536   1421.26648     686.0978     399.5536
   1421.25122     684.9465     398.3723   1421.25122     684.9465     398.3723
   1421.23596     686.0449     397.0437   1421.23596     686.0449     397.0437
   1421.22070     685.5961     396.0914   1421.22070     685.5961     396.0914
   1421.20544     685.6809     395.0145   1421.20544     685.6809     395.0145
   1421.19019     685.0339     394.5072   1421.19019     685.0339     394.5072
   1421.17493     685.1252     393.4644   1421.17493     685.1252     393.4644
   1421.15967     684.7485     393.0005   1421.15967     684.7485     393.0005
   1421.14441     684.9876     391.8624   1421.14441     684.9876     391.8624
   1421.12915     684.2317     391.2674   1421.12915     684.2317     391.2674
   1421.11389     684.0751     389.6580   1421.11389     684.0751     389.6580
   1421.09863     684.3593     389.6466   1421.09863     684.3593     389.6466
   1421.08337     683.4415     388.4582   1421.08337     683.4415     388.4582
   1421.06812     684.5819     387.5545   1421.06812     684.5819     387.5545
   1421.05286     683.8967     386.1951   1421.05286     683.8967     386.1951
   1421.03760     683.8728     385.8031   1421.03760     683.8728     385.8031
   1421.02234     682.7799     384.4405   1421.02234     682.7799     384.4405
   1421.00708     683.8940     384.0463   1421.00708     683.8940     384.0463
   1420.99182     683.5605     382.8964   1420.99182     683.5605     382.8964
   1420.97656     682.9396     382.7314   1420.97656     682.9396     382.7314
   1420.96130     683.1812     381.3856   1420.96130     683.1812     381.3856
   1420.94604     683.0373     381.8129   1420.94604     683.0373     381.8129
   1420.93079     684.1742     379.3560   1420.93079     684.1742     379.3560
   1420.91553     682.7122     379.3921   1420.91553     682.7122     379.3921
   1420.90027     681.8607     378.7451   1420.90027     681.8607     378.7451
   1420.88501     682.1424     377.8072   1420.88501     682.1424     377.8072
   1420.86975     682.8495     377.4194   1420.86975     682.8495     377.4194
   1420.85449     682.7466     375.6374   1420.85449     682.7466     375.6374
   1420.83923     683.0443     375.5890   1420.83923     683.0443     375.5890
   1420.82397     684.1417     375.0436   1420.82397     684.1417     375.0436
   1420.80872     683.3310     374.5151   1420.80872     683.3310     374.5151
   1420.79346     682.8821     373.9532   1420.79346     682.8821     373.9532
   1420.77820     684.7637     373.4980   1420.77820     684.7637     373.4980
   1420.76294     685.4617     372.9871   1420.76294     685.4617     372.9871
   1420.74768     685.7316     372.4968   1420.74768     685.7316     372.4968
   1420.73242     686.0392     372.0031   1420.73242     686.0392     372.0031
   1420.71716     687.2841     371.7439   1420.71716     687.2841     371.7439
   1420.70190     686.8345     371.3130   1420.70190     686.8345     371.3130
   1420.68665     688.6110     371.4256   1420.68665     688.6110     371.4256
   1420.67139     690.2463     371.7510   1420.67139     690.2463     371.7510
   1420.65613     691.6685     371.5087   1420.65613     691.6685     371.5087
   1420.64087     692.6874     371.3257   1420.64087     692.6874     371.3257
   1420.62561     694.2846     371.9378   1420.62561     694.2846     371.9378
   1420.61035     694.8540     371.3709   1420.61035     694.8540     371.3709
   1420.59509     696.8502     371.4812   1420.59509     696.8502     371.4812
   1420.57983     697.6905     371.2032   1420.57983     697.6905     371.2032
   1420.56458     697.1970     370.7376   1420.56458     697.1970     370.7376
   1420.54932     700.6007     369.9710   1420.54932     700.6007     369.9710
   1420.53406     699.3668     369.7691   1420.53406     699.3668     369.7691
   1420.51880     700.7288     370.2383   1420.51880     700.7288     370.2383
   1420.50354     699.6648     368.7451   1420.50354     699.6648     368.7451
   1420.48828     699.0992     368.4610   1420.48828     699.0992     368.4610
   1420.47302     698.6811     367.7805   1420.47302     698.6811     367.7805
   1420.45776     699.7472     367.1825   1420.45776     699.7472     367.1825
   1420.44250     700.6015     367.4882   1420.44250     700.6015     367.4882
   1420.42725     702.6805     367.5642   1420.42725     702.6805     367.5642
   1420.41199     707.2748     368.6896   1420.41199     707.2748     368.6896
   1420.39673     709.6544     370.3683   1420.39673     709.6544     370.3683
   1420.38147     714.4034     371.3188   1420.38147     714.4034     371.3188
   1420.36621     723.1144     375.2431   1420.36621     723.1144     375.2431
   1420.35095     736.7414     380.4625   1420.35095     736.7414     380.4625
   1420.33569     759.8600     392.5680   1420.33569     759.8600     392.5680
   1420.32043     813.4457     418.3767   1420.32043     813.4457     418.3767
   1420.30518     908.1782     464.0073   1420.30518     908.1782     464.0073
   1420.28992    1054.7826     537.9051   1420.28992    1054.7826     537.9051
   1420.27466    1288.8374     653.1964   1420.27466    1288.8374     653.1964
   1420.25940    1675.5104     841.0481   1420.25940    1675.5104     841.0481
   1420.24414    1983.0275     994.3429   1420.24414    1983.0275     994.3429
   1420.22888    2181.0720    1091.9738   1420.22888    2181.0720    1091.9738
   1420.21362    2181.0034    1089.9463   1420.21362    2181.0034    1089.9463
   1420.19836    2117.5339    1055.8871   1420.19836    2117.5339    1055.8871
   1420.18311    2159.1328    1078.4275   1420.18311    2159.1328    1078.4275
   1420.16785    2150.6560    1072.4811   1420.16785    2150.6560    1072.4811
   1420.15259    1947.7816     970.2851   1420.15259    1947.7816     970.2851
   1420.13733    1752.1387     873.5859   1420.13733    1752.1387     873.5859
   1420.12207    1508.9581     753.3218   1420.12207    1508.9581     753.3218
   1420.10681    1186.7075     594.9451   1420.10681    1186.7075     594.9451
   1420.09155     955.8079     480.6812   1420.09155     955.8079     480.6812
   1420.07629     831.0131     418.3438   1420.07629     831.0131     418.3438
   1420.06104     762.9893     384.6624   1420.06104     762.9893     384.6624
   1420.04578     726.4694     366.2822   1420.04578     726.4694     366.2822
   1420.03052     708.0906     356.6718   1420.03052     708.0906     356.6718
   1420.01526     695.2283     352.1172   1420.01526     695.2283     352.1172
   1420.00000     690.6732     348.9310   1420.00000     690.6732     348.9310
   1419.98474     686.1181     345.7448   1419.98474     686.1181     345.7448
   1419.96948     681.8375     342.8853   1419.96948     681.8375     342.8853
   1419.95422     679.1851     341.2083   1419.95422     679.1851     341.2083
   1419.93896     679.0698     340.4021   1419.93896     679.0698     340.4021
   1419.92371     677.6677     339.6985   1419.92371     677.6677     339.6985
   1419.90845     677.2624     338.6397   1419.90845     677.2624     338.6397
   1419.89319     676.2209     338.1317   1419.89319     676.2209     338.1317
   1419.87793     676.9097     337.8129   1419.87793     676.9097     337.8129
   1419.86267     677.5724     337.6019   1419.86267     677.5724     337.6019
   1419.84741     677.0660     337.3267   1419.84741     677.0660     337.3267
   1419.83215     676.1198     336.7609   1419.83215     676.1198     336.7609
   1419.81689     676.2678     337.3111   1419.81689     676.2678     337.3111
   1419.80164     676.3657     336.5319   1419.80164     676.3657     336.5319
   1419.78638     676.9930     336.0057   1419.78638     676.9930     336.0057
   1419.77112     675.4909     335.0375   1419.77112     675.4909     335.0375
   1419.75586     676.3820     335.0628   1419.75586     676.3820     335.0628
   1419.74060     677.5566     334.9547   1419.74060     677.5566     334.9547
   1419.72534     676.1671     335.0135   1419.72534     676.1671     335.0135
   1419.71008     677.0146     335.0513   1419.71008     677.0146     335.0513
   1419.69482     676.5638     333.7996   1419.69482     676.5638     333.7996
   1419.67957     676.7331     334.3010   1419.67957     676.7331     334.3010
   1419.66431     676.6873     333.4416   1419.66431     676.6873     333.4416
   1419.64905     676.9658     333.7314   1419.64905     676.9658     333.7314
   1419.63379     677.6342     333.1105   1419.63379     677.6342     333.1105
   1419.61853     677.9735     332.9855   1419.61853     677.9735     332.9855
   1419.60327     677.1530     333.0674   1419.60327     677.1530     333.0674
   1419.58801     678.1671     333.0443   1419.58801     678.1671     333.0443
   1419.57275     678.1473     332.3849   1419.57275     678.1473     332.3849
   1419.55750     679.1514     332.9868   1419.55750     679.1514     332.9868
   1419.54224     678.2758     332.8443   1419.54224     678.2758     332.8443
   1419.52698     679.5379     332.5335   1419.52698     679.5379     332.5335
   1419.51172     678.7615     332.5388   1419.51172     678.7615     332.5388
   1419.49646     678.7938     332.6455   1419.49646     678.7938     332.6455
   1419.48120     680.4209     332.3353   1419.48120     680.4209     332.3353
   1419.46594     679.3939     332.7119   1419.46594     679.3939     332.7119
   1419.45068     680.2920     332.3280   1419.45068     680.2920     332.3280
   1419.43542     681.5070     331.8705   1419.43542     681.5070     331.8705
   1419.42017     680.6959     332.6975   1419.42017     680.6959     332.6975
   1419.40491     681.5642     332.4144   1419.40491     681.5642     332.4144
   1419.38965     682.1462     333.0534   1419.38965     682.1462     333.0534
   1419.37439     682.9081     332.4861   1419.37439     682.9081     332.4861
   1419.35913     682.5760     332.9224   1419.35913     682.5760     332.9224
   1419.34387     682.5146     332.4195   1419.34387     682.5146     332.4195
   1419.32861     682.5917     332.6187   1419.32861     682.5917     332.6187
   1419.31335     682.9663     331.9666   1419.31335     682.9663     331.9666
   1419.29810     683.7277     332.4397   1419.29810     683.7277     332.4397
   1419.28284     684.1786     333.5291   1419.28284     684.1786     333.5291
   1419.26758     684.7067     333.2901   1419.26758     684.7067     333.2901
   1419.25232     684.6798     332.5512   1419.25232     684.6798     332.5512
   1419.23706     685.1168     333.5218   1419.23706     685.1168     333.5218
   1419.22180     685.8251     333.5756   1419.22180     685.8251     333.5756
   1419.20654     685.8031     333.3736   1419.20654     685.8031     333.3736
   1419.19128     686.3367     333.8004   1419.19128     686.3367     333.8004
   1419.17603     686.8571     333.6223   1419.17603     686.8571     333.6223
   1419.16077     687.0800     333.4419   1419.16077     687.0800     333.4419
   1419.14551     688.2029     334.3680   1419.14551     688.2029     334.3680
   1419.13025     688.0402     334.0277   1419.13025     688.0402     334.0277
   1419.11499     689.2537     334.7812   1419.11499     689.2537     334.7812
   1419.09973     688.5318     335.1148   1419.09973     688.5318     335.1148
   1419.08447     689.4946     335.1249   1419.08447     689.4946     335.1249
   1419.06921     690.5440     335.5262   1419.06921     690.5440     335.5262
   1419.05396     691.1288     335.4542   1419.05396     691.1288     335.4542
   1419.03870     691.1370     335.8364   1419.03870     691.1370     335.8364
   1419.02344     691.0231     336.1554   1419.02344     691.0231     336.1554
   1419.00818     691.5837     336.7317   1419.00818     691.5837     336.7317
   1418.99292     691.9672     336.5328   1418.99292     691.9672     336.5328
   1418.97766     693.4155     337.3494   1418.97766     693.4155     337.3494
   1418.96240     693.2634     337.3977   1418.96240     693.2634     337.3977
   1418.94714     694.4671     337.0648   1418.94714     694.4671     337.0648
   1418.93188     693.2151     337.7458   1418.93188     693.2151     337.7458
   1418.91663     694.4645     338.6852   1418.91663     694.4645     338.6852
   1418.90137     695.2997     338.6080   1418.90137     695.2997     338.6080
   1418.88611     696.1680     339.4713   1418.88611     696.1680     339.4713
   1418.87085     696.1113     338.9232   1418.87085     696.1113     338.9232
   1418.85559     697.1161     339.9792   1418.85559     697.1161     339.9792
   1418.84033     697.3232     339.9167   1418.84033     697.3232     339.9167
   1418.82507     697.3322     340.7315   1418.82507     697.3322     340.7315
   1418.80981     698.5073     340.9844   1418.80981     698.5073     340.9844
   1418.79456     698.7596     341.5503   1418.79456     698.7596     341.5503
   1418.77930     699.6053     341.5656   1418.77930     699.6053     341.5656
   1418.76404     699.4466     342.5504   1418.76404     699.4466     342.5504
   1418.74878     700.5976     343.1229   1418.74878     700.5976     343.1229
   1418.73352     701.9702     342.9942   1418.73352     701.9702     342.9942
   1418.71826     702.7712     343.7480   1418.71826     702.7712     343.7480
   1418.70300     702.5430     344.0918   1418.70300     702.5430     344.0918
   1418.68774     702.7810     344.9168   1418.68774     702.7810     344.9168
   1418.67249     704.5370     345.3881   1418.67249     704.5370     345.3881
   1418.65723     704.7253     345.2520   1418.65723     704.7253     345.2520
   1418.64197     704.5388     345.8824   1418.64197     704.5388     345.8824
   1418.62671     705.0794     346.9959   1418.62671     705.0794     346.9959
   1418.61145     706.0768     347.6687   1418.61145     706.0768     347.6687
   1418.59619     707.0016     347.5604   1418.59619     707.0016     347.5604
   1418.58093     708.0229     348.5120   1418.58093     708.0229     348.5120
   1418.56567     708.6638     348.9093   1418.56567     708.6638     348.9093
   1418.55042     708.8447     349.8105   1418.55042     708.8447     349.8105
   1418.53516     709.9233     350.2376   1418.53516     709.9233     350.2376
   1418.51990     711.1608     351.0709   1418.51990     711.1608     351.0709
   1418.50464     710.6200     351.1543   1418.50464     710.6200     351.1543
   1418.48938     711.1982     351.8312   1418.48938     711.1982     351.8312
   1418.47412     711.8951     352.8608   1418.47412     711.8951     352.8608
   1418.45886     713.8163     353.6985   1418.45886     713.8163     353.6985
   1418.44360     714.0804     353.9215   1418.44360     714.0804     353.9215
   1418.42834     714.5150     355.7081   1418.42834     714.5150     355.7081
   1418.41309     714.3499     355.1454   1418.41309     714.3499     355.1454
   1418.39783     714.8121     356.7473   1418.39783     714.8121     356.7473
   1418.38257     716.3630     356.8504   1418.38257     716.3630     356.8504
   1418.36731     717.5790     357.5043   1418.36731     717.5790     357.5043
   1418.35205     717.4198     358.3471   1418.35205     717.4198     358.3471
   1418.33679     718.3149     358.9547   1418.33679     718.3149     358.9547
   1418.32153     719.3547     359.9120   1418.32153     719.3547     359.9120
   1418.30627     720.1993     360.5677   1418.30627     720.1993     360.5677
   1418.29102     721.2737     361.8687   1418.29102     721.2737     361.8687
   1418.27576     722.8018     362.3800   1418.27576     722.8018     362.3800
   1418.26050     722.8725     362.7135   1418.26050     722.8725     362.7135
   1418.24524     721.1713     363.3808   1418.24524     721.1713     363.3808
   1418.22998     723.5157     364.6006   1418.22998     723.5157     364.6006
   1418.21472     724.1458     365.1248   1418.21472     724.1458     365.1248
   1418.19946     724.7067     366.2925   1418.19946     724.7067     366.2925
   1418.18420     726.1290     367.0356   1418.18420     726.1290     367.0356
   1418.16895     725.8813     368.5993   1418.16895     725.8813     368.5993
   1418.15369     726.6441     368.7355   1418.15369     726.6441     368.7355
   1418.13843     727.3370     369.3865   1418.13843     727.3370     369.3865
   1418.12317     728.8851     370.5121   1418.12317     728.8851     370.5121
   1418.10791     728.8083     371.2683   1418.10791     728.8083     371.2683
   1418.09265     731.2247     372.4987   1418.09265     731.2247     372.4987
   1418.07739     730.3671     372.9724   1418.07739     730.3671     372.9724
   1418.06213     731.4389     373.4733   1418.06213     731.4389     373.4733
   1418.04688     732.7229     374.3241   1418.04688     732.7229     374.3241
   1418.03162     734.4418     375.6881   1418.03162     734.4418     375.6881
   1418.01636     735.0430     376.5467   1418.01636     735.0430     376.5467
   1418.00110     734.7424     377.5832   1418.00110     734.7424     377.5832
   1417.98584     735.3531     378.8622   1417.98584     735.3531     378.8622
   1417.97058     735.3218     379.7928   1417.97058     735.3218     379.7928
   1417.95532     737.2905     380.7494   1417.95532     737.2905     380.7494
   1417.94006     739.1696     381.8503   1417.94006     739.1696     381.8503
   1417.92480     740.2477     382.8371   1417.92480     740.2477     382.8371
   1417.90955     739.8990     383.3759   1417.90955     739.8990     383.3759
   1417.89429     740.7946     384.3086   1417.89429     740.7946     384.3086
   1417.87903     741.6085     384.7099   1417.87903     741.6085     384.7099
   1417.86377     741.5920     386.4856   1417.86377     741.5920     386.4856
   1417.84851     744.0111     387.3435   1417.84851     744.0111     387.3435
   1417.83325     743.7169     388.5395   1417.83325     743.7169     388.5395
   1417.81799     745.2021     389.3505   1417.81799     745.2021     389.3505
   1417.80273     745.6110     390.3401   1417.80273     745.6110     390.3401
   1417.78748     746.9918     391.3805   1417.78748     746.9918     391.3805
   1417.77222     747.8170     392.7221   1417.77222     747.8170     392.7221
   1417.75696     748.9955     393.4815   1417.75696     748.9955     393.4815
   1417.74170     748.9647     394.9909   1417.74170     748.9647     394.9909
   1417.72644     749.4537     395.8207   1417.72644     749.4537     395.8207
   1417.71118     751.1048     397.0289   1417.71118     751.1048     397.0289
   1417.69592     751.0082     398.1378   1417.69592     751.0082     398.1378
   1417.68066     753.0784     399.4872   1417.68066     753.0784     399.4872
   1417.66541     753.1334     400.4418   1417.66541     753.1334     400.4418
   1417.65015     753.8291     400.5313   1417.65015     753.8291     400.5313
   1417.63489     754.9389     402.8843   1417.63489     754.9389     402.8843
   1417.61963     755.4648     403.8706   1417.61963     755.4648     403.8706
   1417.60437     755.8550     405.3275   1417.60437     755.8550     405.3275
   1417.58911     758.1336     405.5013   1417.58911     758.1336     405.5013
   1417.57385     756.7899     407.3576   1417.57385     756.7899     407.3576
   1417.55859     758.4371     408.3770   1417.55859     758.4371     408.3770
   1417.54333     760.7115     409.3894   1417.54333     760.7115     409.3894
   1417.52808     761.0919     410.9467   1417.52808     761.0919     410.9467
   1417.51282     760.3701     411.1905   1417.51282     760.3701     411.1905
   1417.49756     762.9919     412.5392   1417.49756     762.9919     412.5392
   1417.48230     763.5562     414.5855   1417.48230     763.5562     414.5855
   1417.46704     764.8051     415.1248   1417.46704     764.8051     415.1248
   1417.45178     764.3527     416.1282   1417.45178     764.3527     416.1282
   1417.43652     765.2899     417.2734   1417.43652     765.2899     417.2734
   1417.42126     766.4756     418.5392   1417.42126     766.4756     418.5392
   1417.40601     766.5789     420.1574   1417.40601     766.5789     420.1574
   1417.39075     768.0668     420.6142   1417.39075     768.0668     420.6142
   1417.37549     769.2533     422.0070   1417.37549     769.2533     422.0070
   1417.36023     769.7031     423.2950   1417.36023     769.7031     423.2950
   1417.34497     770.9319     424.1310   1417.34497     770.9319     424.1310
   1417.32971     771.0187     425.6229   1417.32971     771.0187     425.6229
   1417.31445     772.7372     427.5605   1417.31445     772.7372     427.5605
   1417.29919     772.4862     428.4132   1417.29919     772.4862     428.4132
   1417.28394     773.8832     429.2807   1417.28394     773.8832     429.2807
   1417.26868     775.2825     429.9080   1417.26868     775.2825     429.9080
   1417.25342     776.0984     430.9926   1417.25342     776.0984     430.9926
   1417.23816     775.3013     432.5610   1417.23816     775.3013     432.5610
   1417.22290     775.5513     434.7543   1417.22290     775.5513     434.7543
   1417.20764     775.6879     434.9677   1417.20764     775.6879     434.9677
   1417.19238     778.3421     436.1987   1417.19238     778.3421     436.1987
   1417.17712     778.6061     437.0398   1417.17712     778.6061     437.0398
   1417.16187     779.1803     437.3291   1417.16187     779.1803     437.3291
   1417.14661     779.9077     439.7207   1417.14661     779.9077     439.7207
   1417.13135     780.8855     439.9234   1417.13135     780.8855     439.9234
   1417.11609     781.7435     442.1404   1417.11609     781.7435     442.1404
   1417.10083     782.1192     442.9806   1417.10083     782.1192     442.9806
   1417.08557     783.0429     443.6355   1417.08557     783.0429     443.6355
   1417.07031     783.6030     444.7621   1417.07031     783.6030     444.7621
   1417.05505     785.8865     445.7962   1417.05505     785.8865     445.7962
   1417.03979     785.0259     446.8390   1417.03979     785.0259     446.8390
   1417.02454     785.7408     447.9507   1417.02454     785.7408     447.9507
   1417.00928     786.8818     448.5653   1417.00928     786.8818     448.5653
   1416.99402     785.6350     450.2598   1416.99402     785.6350     450.2598
   1416.97876     787.8636     451.1310   1416.97876     787.8636     451.1310
   1416.96350     787.0804     452.3192   1416.96350     787.0804     452.3192
   1416.94824     788.6049     452.8845   1416.94824     788.6049     452.8845
   1416.93298     789.6326     454.5172   1416.93298     789.6326     454.5172
   1416.91772     788.6770     454.9590   1416.91772     788.6770     454.9590
   1416.90247     789.7276     456.4359   1416.90247     789.7276     456.4359
   1416.88721     788.8907     456.3382   1416.88721     788.8907     456.3382
   1416.87195     791.5432     457.9831   1416.87195     791.5432     457.9831
   1416.85669     791.3257     458.7896   1416.85669     791.3257     458.7896
   1416.84143     791.3917     458.5977   1416.84143     791.3917     458.5977
   1416.82617     793.8144     460.5776   1416.82617     793.8144     460.5776
   1416.81091     792.2483     461.2748   1416.81091     792.2483     461.2748
   1416.79565     792.2802     462.7025   1416.79565     792.2802     462.7025
   1416.78040     793.9398     461.9276   1416.78040     793.9398     461.9276
   1416.76514     793.2426     463.3026   1416.76514     793.2426     463.3026
   1416.74988     794.8697     464.2076   1416.74988     794.8697     464.2076
   1416.73462     795.7047     465.0380   1416.73462     795.7047     465.0380
   1416.71936     794.2042     465.6715   1416.71936     794.2042     465.6715
   1416.70410     795.8141     466.0223   1416.70410     795.8141     466.0223
   1416.68884     795.9313     466.3716   1416.68884     795.9313     466.3716
   1416.67358     794.6994     468.2782   1416.67358     794.6994     468.2782
   1416.65833     796.2331     468.7317   1416.65833     796.2331     468.7317
   1416.64307     796.8232     469.7095   1416.64307     796.8232     469.7095
   1416.62781     796.7971     469.8258   1416.62781     796.7971     469.8258
   1416.61255     795.9147     470.4998   1416.61255     795.9147     470.4998
   1416.59729     796.7319     471.1434   1416.59729     796.7319     471.1434
   1416.58203     797.0874     471.1882   1416.58203     797.0874     471.1882
   1416.56677     796.4182     471.2123   1416.56677     796.4182     471.2123
   1416.55151     797.3611     472.1288   1416.55151     797.3611     472.1288
   1416.53625     797.8309     472.2286   1416.53625     797.8309     472.2286
   1416.52100     796.6235     472.3497   1416.52100     796.6235     472.3497
   1416.50574     799.0515     472.7036   1416.50574     799.0515     472.7036
   1416.49048     796.7097     473.5580   1416.49048     796.7097     473.5580
   1416.47522     798.6172     472.8390   1416.47522     798.6172     472.8390
   1416.45996     798.3083     474.3198   1416.45996     798.3083     474.3198
   1416.44470     798.2812     474.1086   1416.44470     798.2812     474.1086
   1416.42944     797.9454     475.0398   1416.42944     797.9454     475.0398
   1416.41418     797.9664     475.2437   1416.41418     797.9664     475.2437
   1416.39893     798.1281     475.1942   1416.39893     798.1281     475.1942
   1416.38367     796.9515     476.2156   1416.38367     796.9515     476.2156
   1416.36841     797.7507     474.7984   1416.36841     797.7507     474.7984
   1416.35315     797.8571     474.9865   1416.35315     797.8571     474.9865
   1416.33789     797.3203     476.1417   1416.33789     797.3203     476.1417
   1416.32263     796.4891     475.5156   1416.32263     796.4891     475.5156
   1416.30737     796.8055     475.9481   1416.30737     796.8055     475.9481
   1416.29211     797.3596     475.9265   1416.29211     797.3596     475.9265
   1416.27686     796.3242     476.9221   1416.27686     796.3242     476.9221
   1416.26160     795.6191     476.0464   1416.26160     795.6191     476.0464
   1416.24634     796.8030     476.4843   1416.24634     796.8030     476.4843
   1416.23108     796.2645     476.2527   1416.23108     796.2645     476.2527
   1416.21582     795.4083     476.8392   1416.21582     795.4083     476.8392
   1416.20056     795.4490     476.1947   1416.20056     795.4490     476.1947
   1416.18530     794.5494     475.6730   1416.18530     794.5494     475.6730
   1416.17004     793.9417     475.6224   1416.17004     793.9417     475.6224
   1416.15479     794.5536     475.1227   1416.15479     794.5536     475.1227
   1416.13953     795.0446     475.4367   1416.13953     795.0446     475.4367
   1416.12427     792.4750     475.0699   1416.12427     792.4750     475.0699
   1416.10901     793.9284     475.0659   1416.10901     793.9284     475.0659
   1416.09375     792.4250     474.4296   1416.09375     792.4250     474.4296
   1416.07849     792.8554     475.0571   1416.07849     792.8554     475.0571
   1416.06323     790.9174     475.4865   1416.06323     790.9174     475.4865
   1416.04797     790.8713     475.1734   1416.04797     790.8713     475.1734
   1416.03271     790.2051     473.3918   1416.03271     790.2051     473.3918
   1416.01746     790.3781     474.1078   1416.01746     790.3781     474.1078
   1416.00220     790.0837     473.2874   1416.00220     790.0837     473.2874
   1415.98694     790.1903     472.5011   1415.98694     790.1903     472.5011
   1415.97168     789.4312     473.3685   1415.97168     789.4312     473.3685
   1415.95642     788.9857     473.1962   1415.95642     788.9857     473.1962
   1415.94116     787.9608     471.5921   1415.94116     787.9608     471.5921
   1415.92590     787.9135     471.9143   1415.92590     787.9135     471.9143
   1415.91064     787.2434     471.0701   1415.91064     787.2434     471.0701
   1415.89539     786.2003     471.8419   1415.89539     786.2003     471.8419
   1415.88013     785.3984     470.3475   1415.88013     785.3984     470.3475
   1415.86487     786.3351     470.7558   1415.86487     786.3351     470.7558
   1415.84961     783.9338     470.1894   1415.84961     783.9338     470.1894
   1415.83435     783.9955     469.8846   1415.83435     783.9955     469.8846
   1415.81909     783.2368     469.3812   1415.81909     783.2368     469.3812
   1415.80383     782.4276     469.3748   1415.80383     782.4276     469.3748
   1415.78857     782.2056     468.5699   1415.78857     782.2056     468.5699
   1415.77332     780.8878     467.5985   1415.77332     780.8878     467.5985
   1415.75806     780.7732     467.7705   1415.75806     780.7732     467.7705
   1415.74280     780.1505     467.2165   1415.74280     780.1505     467.2165
   1415.72754     779.2191     466.5760   1415.72754     779.2191     466.5760
   1415.71228     778.0095     466.0247   1415.71228     778.0095     466.0247
   1415.69702     777.7056     466.7527   1415.69702     777.7056     466.7527
   1415.68176     777.5228     465.9432   1415.68176     777.5228     465.9432
   1415.66650     776.4332     465.3332   1415.66650     776.4332     465.3332
   1415.65125     775.9011     464.8663   1415.65125     775.9011     464.8663
   1415.63599     773.7346     464.1157   1415.63599     773.7346     464.1157
   1415.62073     773.7025     463.5634   1415.62073     773.7025     463.5634
   1415.60547     772.6777     462.8905   1415.60547     772.6777     462.8905
   1415.59021     771.6723     463.0976   1415.59021     771.6723     463.0976
   1415.57495     770.6116     462.7889   1415.57495     770.6116     462.7889
   1415.55969     769.0771     461.0281   1415.55969     769.0771     461.0281
   1415.54443     768.6474     460.6515   1415.54443     768.6474     460.6515
   1415.52917     768.9708     460.4347   1415.52917     768.9708     460.4347
   1415.51392     767.5961     459.9390   1415.51392     767.5961     459.9390
   1415.49866     766.3775     459.0019   1415.49866     766.3775     459.0019
   1415.48340     765.1650     458.5663   1415.48340     765.1650     458.5663
   1415.46814     763.5646     458.3757   1415.46814     763.5646     458.3757
   1415.45288     764.1822     458.8066   1415.45288     764.1822     458.8066
   1415.43762     761.7660     456.7991   1415.43762     761.7660     456.7991
   1415.42236     760.5588     456.1498   1415.42236     760.5588     456.1498
   1415.40710     760.7083     455.3169   1415.40710     760.7083     455.3169
   1415.39185     758.9831     455.3892   1415.39185     758.9831     455.3892
   1415.37659     757.8907     454.7064   1415.37659     757.8907     454.7064
   1415.36133     757.5725     453.9840   1415.36133     757.5725     453.9840
   1415.34607     757.3140     453.5464   1415.34607     757.3140     453.5464
   1415.33081     754.4782     452.3444   1415.33081     754.4782     452.3444
   1415.31555     754.5637     450.8088   1415.31555     754.5637     450.8088
   1415.30029     752.7490     449.9649   1415.30029     752.7490     449.9649
   1415.28503     751.4158     449.1657   1415.28503     751.4158     449.1657
   1415.26978     750.4849     450.4156   1415.26978     750.4849     450.4156
   1415.25452     749.9249     448.9050   1415.25452     749.9249     448.9050
   1415.23926     748.9293     447.8537   1415.23926     748.9293     447.8537
   1415.22400     748.0112     447.5463   1415.22400     748.0112     447.5463
   1415.20874     745.0023     446.2220   1415.20874     745.0023     446.2220
   1415.19348     743.8851     445.6099   1415.19348     743.8851     445.6099
   1415.17822     743.5654     445.3514   1415.17822     743.5654     445.3514
   1415.16296     743.0101     443.8312   1415.16296     743.0101     443.8312
   1415.14771     740.7897     443.7057   1415.14771     740.7897     443.7057
   1415.13245     738.6482     442.3116   1415.13245     738.6482     442.3116
   1415.11719     738.1238     441.0991   1415.11719     738.1238     441.0991
   1415.10193     737.3302     441.2108   1415.10193     737.3302     441.2108
   1415.08667     735.6136     440.1435   1415.08667     735.6136     440.1435
   1415.07141     734.2380     439.7224   1415.07141     734.2380     439.7224
   1415.05615     733.3185     438.7874   1415.05615     733.3185     438.7874
   1415.04089     731.2460     437.2595   1415.04089     731.2460     437.2595
   1415.02563     730.3908     436.4612   1415.02563     730.3908     436.4612
   1415.01038     728.0956     435.0709   1415.01038     728.0956     435.0709
   1414.99512     727.4051     434.0396   1414.99512     727.4051     434.0396
   1414.97986     725.1472     433.3938   1414.97986     725.1472     433.3938
   1414.96460     723.1878     432.6070   1414.96460     723.1878     432.6070
   1414.94934     722.4523     431.7862   1414.94934     722.4523     431.7862
   1414.93408     720.7214     430.2954   1414.93408     720.7214     430.2954
   1414.91882     718.9249     430.0185   1414.91882     718.9249     430.0185
   1414.90356     717.8536     428.4701   1414.90356     717.8536     428.4701
   1414.88831     717.1096     427.9348   1414.88831     717.1096     427.9348
   1414.87305     714.0797     426.6887   1414.87305     714.0797     426.6887
   1414.85779     712.6384     425.4789   1414.85779     712.6384     425.4789
   1414.84253     710.9595     424.9206   1414.84253     710.9595     424.9206
   1414.82727     709.7762     423.4674   1414.82727     709.7762     423.4674
   1414.81201     707.7849     422.5750   1414.81201     707.7849     422.5750
   1414.79675     705.2669     421.5240   1414.79675     705.2669     421.5240
   1414.78149     703.2615     420.2711   1414.78149     703.2615     420.2711
   1414.76624     702.4277     419.0924   1414.76624     702.4277     419.0924
   1414.75098     700.7003     418.7410   1414.75098     700.7003     418.7410
   1414.73572     698.2726     417.5824   1414.73572     698.2726     417.5824
   1414.72046     696.1207     415.0963   1414.72046     696.1207     415.0963
   1414.70520     694.3228     414.8625   1414.70520     694.3228     414.8625
   1414.68994     693.3419     414.0462   1414.68994     693.3419     414.0462
   1414.67468     690.8018     412.8624   1414.67468     690.8018     412.8624
   1414.65942     689.0030     411.7321   1414.65942     689.0030     411.7321
   1414.64417     687.6924     410.1719   1414.64417     687.6924     410.1719
   1414.62891     685.8036     408.7880   1414.62891     685.8036     408.7880
   1414.61365     682.8719     407.6325   1414.61365     682.8719     407.6325
   1414.59839     680.0210     406.3373   1414.59839     680.0210     406.3373
   1414.58313     678.1437     406.0147   1414.58313     678.1437     406.0147
   1414.56787     676.7452     404.6065   1414.56787     676.7452     404.6065
   1414.55261     674.9560     402.7035   1414.55261     674.9560     402.7035
   1414.53735     672.4258     401.7211   1414.53735     672.4258     401.7211
   1414.52209     670.4983     400.5019   1414.52209     670.4983     400.5019
   1414.50684     668.9745     398.9597   1414.50684     668.9745     398.9597
   1414.49158     666.6902     397.4893   1414.49158     666.6902     397.4893
   1414.47632     663.8665     396.1024   1414.47632     663.8665     396.1024
   1414.46106     662.2851     395.5681   1414.46106     662.2851     395.5681
   1414.44580     659.4844     393.4885   1414.44580     659.4844     393.4885
   1414.43054     657.6110     392.1277   1414.43054     657.6110     392.1277
   1414.41528     655.6580     390.5207   1414.41528     655.6580     390.5207
   1414.40002     653.0734     389.1732   1414.40002     653.0734     389.1732
   1414.38477     651.1156     387.8304   1414.38477     651.1156     387.8304
   1414.36951     648.4434     387.4149   1414.36951     648.4434     387.4149
   1414.35425     647.0947     385.0747   1414.35425     647.0947     385.0747
   1414.33899     644.5390     383.4620   1414.33899     644.5390     383.4620
   1414.32373     641.7784     382.4607   1414.32373     641.7784     382.4607
   1414.30847     639.0384     381.7024   1414.30847     639.0384     381.7024
   1414.29321     636.8736     379.3780   1414.29321     636.8736     379.3780
   1414.27795     633.9487     378.2419   1414.27795     633.9487     378.2419
   1414.26270     631.8406     376.9249   1414.26270     631.8406     376.9249
   1414.24744     629.2410     375.6382   1414.24744     629.2410     375.6382
   1414.23218     627.8514     374.0637   1414.23218     627.8514     374.0637
   1414.21692     624.4121     372.0945   1414.21692     624.4121     372.0945
   1414.20166     621.8088     370.7182   1414.20166     621.8088     370.7182
   1414.18640     619.3808     369.4092   1414.18640     619.3808     369.4092
   1414.17114     617.6334     368.0329   1414.17114     617.6334     368.0329
   1414.15588     614.7126     365.9020   1414.15588     614.7126     365.9020
   1414.14062     611.8281     364.9808   1414.14062     611.8281     364.9808
   1414.12537     609.3976     363.2960   1414.12537     609.3976     363.2960
   1414.11011     605.8751     361.8903   1414.11011     605.8751     361.8903
   1414.09485     603.6070     360.6060   1414.09485     603.6070     360.6060
   1414.07959     600.8596     358.8732   1414.07959     600.8596     358.8732
   1414.06433     597.9974     357.3036   1414.06433     597.9974     357.3036
   1414.04907     595.8141     355.8752   1414.04907     595.8141     355.8752
   1414.03381     593.3103     354.2986   1414.03381     593.3103     354.2986
   1414.01855     590.0445     353.0832   1414.01855     590.0445     353.0832
   1414.00330     588.3401     351.2809   1414.00330     588.3401     351.2809
   1413.98804     585.1271     349.7084   1413.98804     585.1271     349.7084
   1413.97278     581.5591     348.2054   1413.97278     581.5591     348.2054
   1413.95752     579.0955     346.6296   1413.95752     579.0955     346.6296
   1413.94226     576.6251     344.9238   1413.94226     576.6251     344.9238
   1413.92700     574.4756     343.6577   1413.92700     574.4756     343.6577
   1413.91174     571.4789     342.3682   1413.91174     571.4789     342.3682
   1413.89648     568.6584     340.5037   1413.89648     568.6584     340.5037
   1413.88123     565.9860     339.1213   1413.88123     565.9860     339.1213
   1413.86597     562.6693     337.3005   1413.86597     562.6693     337.3005
   1413.85071     559.4199     335.7672   1413.85071     559.4199     335.7672
   1413.83545     557.6339     334.2075   1413.83545     557.6339     334.2075
   1413.82019     553.3394     332.9037   1413.82019     553.3394     332.9037
   1413.80493     550.5097     331.5029   1413.80493     550.5097     331.5029
   1413.78967     548.4685     329.7887   1413.78967     548.4685     329.7887
   1413.77441     545.4568     327.7226   1413.77441     545.4568     327.7226
   1413.75916     542.8489     326.2914   1413.75916     542.8489     326.2914
   1413.74390     540.6298     324.8418   1413.74390     540.6298     324.8418
   1413.72864     536.7474     323.7619   1413.72864     536.7474     323.7619
   1413.71338     534.8253     321.8693   1413.71338     534.8253     321.8693
   1413.69812     531.8643     320.1338   1413.69812     531.8643     320.1338
   1413.68286     529.5273     318.9119   1413.68286     529.5273     318.9119
   1413.66760     526.0754     317.4766   1413.66760     526.0754     317.4766
   1413.65234     523.4219     315.5650   1413.65234     523.4219     315.5650
   1413.63708     520.1785     314.4259   1413.63708     520.1785     314.4259
   1413.62183     517.6094     313.0612   1413.62183     517.6094     313.0612
   1413.60657     514.0204     311.1216   1413.60657     514.0204     311.1216
   1413.59131     511.5167     309.6270   1413.59131     511.5167     309.6270
   1413.57605     508.6030     308.4666   1413.57605     508.6030     308.4666
   1413.56079     505.9057     306.9970   1413.56079     505.9057     306.9970
   1413.54553     503.1737     305.9884   1413.54553     503.1737     305.9884
   1413.53027     499.5591     304.2947   1413.53027     499.5591     304.2947
   1413.51501     497.6334     302.4263   1413.51501     497.6334     302.4263
   1413.49976     494.4671     300.9417   1413.49976     494.4671     300.9417
   1413.48450     492.6650     299.7630   1413.48450     492.6650     299.7630
   1413.46924     488.8164     298.3691   1413.46924     488.8164     298.3691
   1413.45398     486.4153     296.1657   1413.45398     486.4153     296.1657
   1413.43872     483.4372     295.3866   1413.43872     483.4372     295.3866
   1413.42346     481.1124     293.7092   1413.42346     481.1124     293.7092
   1413.40820     477.8250     292.6555   1413.40820     477.8250     292.6555
   1413.39294     475.5307     290.6938   1413.39294     475.5307     290.6938
   1413.37769     472.4518     289.8564   1413.37769     472.4518     289.8564
   1413.36243     469.8894     288.5594   1413.36243     469.8894     288.5594
   1413.34717     467.2672     287.1472   1413.34717     467.2672     287.1472
   1413.33191     463.7996     285.9154   1413.33191     463.7996     285.9154
   1413.31665     462.3492     284.8300   1413.31665     462.3492     284.8300
   1413.30139     458.7448     283.4298   1413.30139     458.7448     283.4298
   1413.28613     456.4874     282.5291   1413.28613     456.4874     282.5291
   1413.27087     454.0852     280.7022   1413.27087     454.0852     280.7022
   1413.25562     451.3661     279.4945   1413.25562     451.3661     279.4945
   1413.24036     449.0870     278.4606   1413.24036     449.0870     278.4606
   1413.22510     446.2810     276.7591   1413.22510     446.2810     276.7591
   1413.20984     443.4434     275.8884   1413.20984     443.4434     275.8884
   1413.19458     440.8131     274.9050   1413.19458     440.8131     274.9050
   1413.17932     439.3257     274.0033   1413.17932     439.3257     274.0033
   1413.16406     436.8020     272.6972   1413.16406     436.8020     272.6972
   1413.14880     434.6269     271.1841   1413.14880     434.6269     271.1841
   1413.13354     431.0266     270.1422   1413.13354     431.0266     270.1422
   1413.11829     429.7065     269.3514   1413.11829     429.7065     269.3514
   1413.10303     426.7770     268.2175   1413.10303     426.7770     268.2175
   1413.08777     424.8168     267.5466   1413.08777     424.8168     267.5466
   1413.07251     422.3642     266.2088   1413.07251     422.3642     266.2088
   1413.05725     420.1082     264.9348   1413.05725     420.1082     264.9348
   1413.04199     417.6549     264.3900   1413.04199     417.6549     264.3900
   1413.02673     416.2408     263.2471   1413.02673     416.2408     263.2471
   1413.01147     414.2736     262.2130   1413.01147     414.2736     262.2130
   1412.99622     411.6595     261.2124   1412.99622     411.6595     261.2124
   1412.98096     409.5915     260.5707   1412.98096     409.5915     260.5707
   1412.96570     407.4914     259.8566   1412.96570     407.4914     259.8566
   1412.95044     404.5586     258.8905   1412.95044     404.5586     258.8905
   1412.93518     403.9815     258.3945   1412.93518     403.9815     258.3945
   1412.91992     401.8780     257.4193   1412.91992     401.8780     257.4193
   1412.90466     399.2150     256.8205   1412.90466     399.2150     256.8205
   1412.88940     397.7050     255.9028   1412.88940     397.7050     255.9028
   1412.87415     395.9126     255.2858   1412.87415     395.9126     255.2858
   1412.85889     394.3692     254.4012   1412.85889     394.3692     254.4012
   1412.84363     392.5679     254.2847   1412.84363     392.5679     254.2847
   1412.82837     390.5973     253.3757   1412.82837     390.5973     253.3757
   1412.81311     389.8965     253.1788   1412.81311     389.8965     253.1788
   1412.79785     387.6415     252.3964   1412.79785     387.6415     252.3964
   1412.78259     386.0327     252.1667   1412.78259     386.0327     252.1667
   1412.76733     384.3374     251.3990   1412.76733     384.3374     251.3990
   1412.75208     383.0085     251.1148   1412.75208     383.0085     251.1148
   1412.73682     381.4001     250.4769   1412.73682     381.4001     250.4769
   1412.72156     380.1292     250.7940   1412.72156     380.1292     250.7940
   1412.70630     379.3698     250.2910   1412.70630     379.3698     250.2910
   1412.69104     377.5632     249.8357   1412.69104     377.5632     249.8357
   1412.67578     376.2902     249.4613   1412.67578     376.2902     249.4613
   1412.66052     375.5540     248.9166   1412.66052     375.5540     248.9166
   1412.64526     374.1884     249.1083   1412.64526     374.1884     249.1083
   1412.63000     373.1862     248.7505   1412.63000     373.1862     248.7505
   1412.61475     371.9710     248.9267   1412.61475     371.9710     248.9267
   1412.59949     370.6754     248.7834   1412.59949     370.6754     248.7834
   1412.58423     369.3859     248.3230   1412.58423     369.3859     248.3230
   1412.56897     368.8463     248.4560   1412.56897     368.8463     248.4560
   1412.55371     368.0736     248.7217   1412.55371     368.0736     248.7217
   1412.53845     367.5756     248.3961   1412.53845     367.5756     248.3961
   1412.52319     366.6825     248.1904   1412.52319     366.6825     248.1904
   1412.50793     365.7831     248.8226   1412.50793     365.7831     248.8226
   1412.49268     365.8320     248.4994   1412.49268     365.8320     248.4994
   1412.47742     364.9098     248.5897   1412.47742     364.9098     248.5897
   1412.46216     363.7117     249.4283   1412.46216     363.7117     249.4283
   1412.44690     363.8030     249.4103   1412.44690     363.8030     249.4103
   1412.43164     363.0831     249.8849   1412.43164     363.0831     249.8849
   1412.41638     362.6377     249.7131   1412.41638     362.6377     249.7131
   1412.40112     362.3201     250.2265   1412.40112     362.3201     250.2265
   1412.38586     362.7284     250.7478   1412.38586     362.7284     250.7478
   1412.37061     362.2026     250.9032   1412.37061     362.2026     250.9032
   1412.35535     362.2659     251.8147   1412.35535     362.2659     251.8147
   1412.34009     361.8091     252.3852   1412.34009     361.8091     252.3852
   1412.32483     362.2533     252.5690   1412.32483     362.2533     252.5690
   1412.30957     361.8734     253.3590   1412.30957     361.8734     253.3590
   1412.29431     362.3307     253.5085   1412.29431     362.3307     253.5085
   1412.27905     361.9514     254.5155   1412.27905     361.9514     254.5155
   1412.26379     361.9227     254.8361   1412.26379     361.9227     254.8361
   1412.24854     362.6308     255.9704   1412.24854     362.6308     255.9704
   1412.23328     362.4623     256.5590   1412.23328     362.4623     256.5590
   1412.21802     363.2634     257.5269   1412.21802     363.2634     257.5269
   1412.20276     364.3822     258.0726   1412.20276     364.3822     258.0726