#     FILENAME=!Skynet_57528_lach-hhg-134_20443_20958.cyb.fits
#     BASENAME=Skynet_57528_lach-hhg-134_20443_20958
#     SRC_NAME=lach-hhg-134
#     OBSERVER=hhgmadison16_9500
#     DATE_OBS=2016-05-20T17:05:33.750
#        OBSID=20443
#      SCANNUM=20958
#          MJD=57528.7132
#          UTC=61622
#     SCANTYPE=track
#     DATAMODE=HIRES
#     TUNEFREQ=1420.0000
# Actual_FREQ1=1420.0000
# Actual_FREQ2=1420.0000
#    LO1Tuning=6870.000
#     RFFILTER=1355_1435
#        OBSBW=-15.6250
#        NCHAN=1024 
#        FOCUS=37.0709
#           RA=02:24:21.99
#          DEC=60:51:41.29
#      RA(hrs)=2.406100
#     DEC(deg)=60.861500
#    AZIM(deg)=337.910
#    ELEV(deg)=64.496
#     IFattens=11.00, 10.00
#      WARNING=None
#    TCAL_XL1=7.9635
#    TCAL_YR1=9.1340
#    TCAL_XL2=7.9635
#    TCAL_YR2=9.1340
#     TRX_XL1=11.7060
#     TRX_YR1=11.7060
#     TRX_XL2=11.7060
#     TRX_YR2=11.7060
#        TAVE=1.0000
#Freq1(MHz)          XL1          YR1  Freq2(MHz)          XL2          YR2 

   1427.81250     303.4576     243.1357   1427.81250     303.4576     243.1357
   1427.79724     304.3087     244.2696   1427.79724     304.3087     244.2696
   1427.78198     304.6278     244.6051   1427.78198     304.6278     244.6051
   1427.76672     304.8368     245.6672   1427.76672     304.8368     245.6672
   1427.75146     305.1093     246.1515   1427.75146     305.1093     246.1515
   1427.73621     305.9895     247.3098   1427.73621     305.9895     247.3098
   1427.72095     306.9146     248.5963   1427.72095     306.9146     248.5963
   1427.70569     307.8907     249.5278   1427.70569     307.8907     249.5278
   1427.69043     308.4197     250.2317   1427.69043     308.4197     250.2317
   1427.67517     309.3539     251.3904   1427.67517     309.3539     251.3904
   1427.65991     310.6956     252.2756   1427.65991     310.6956     252.2756
   1427.64465     311.4016     253.6569   1427.64465     311.4016     253.6569
   1427.62939     312.3706     254.2520   1427.62939     312.3706     254.2520
   1427.61414     313.0353     255.4287   1427.61414     313.0353     255.4287
   1427.59888     314.4482     256.6747   1427.59888     314.4482     256.6747
   1427.58362     316.1950     257.9445   1427.58362     316.1950     257.9445
   1427.56836     316.5080     259.0503   1427.56836     316.5080     259.0503
   1427.55310     318.2461     260.3293   1427.55310     318.2461     260.3293
   1427.53784     319.0183     261.9464   1427.53784     319.0183     261.9464
   1427.52258     320.5798     262.8667   1427.52258     320.5798     262.8667
   1427.50732     321.5806     264.5993   1427.50732     321.5806     264.5993
   1427.49207     322.8600     265.8663   1427.49207     322.8600     265.8663
   1427.47681     324.8041     267.3216   1427.47681     324.8041     267.3216
   1427.46155     326.2608     269.0710   1427.46155     326.2608     269.0710
   1427.44629     327.6860     270.3115   1427.44629     327.6860     270.3115
   1427.43103     328.6557     271.6897   1427.43103     328.6557     271.6897
   1427.41577     330.4316     273.1344   1427.41577     330.4316     273.1344
   1427.40051     332.2777     274.6255   1427.40051     332.2777     274.6255
   1427.38525     333.8246     276.1950   1427.38525     333.8246     276.1950
   1427.37000     335.0244     278.0438   1427.37000     335.0244     278.0438
   1427.35474     337.0450     279.9530   1427.35474     337.0450     279.9530
   1427.33948     338.4182     281.7252   1427.33948     338.4182     281.7252
   1427.32422     340.7627     283.2653   1427.32422     340.7627     283.2653
   1427.30896     342.7978     284.7536   1427.30896     342.7978     284.7536
   1427.29370     344.0110     286.7216   1427.29370     344.0110     286.7216
   1427.27844     345.6280     288.6918   1427.27844     345.6280     288.6918
   1427.26318     347.5324     290.0889   1427.26318     347.5324     290.0889
   1427.24792     349.9879     292.3026   1427.24792     349.9879     292.3026
   1427.23267     352.2509     293.6489   1427.23267     352.2509     293.6489
   1427.21741     353.9763     295.4133   1427.21741     353.9763     295.4133
   1427.20215     356.1577     297.5417   1427.20215     356.1577     297.5417
   1427.18689     358.2420     298.9443   1427.18689     358.2420     298.9443
   1427.17163     359.7791     301.0197   1427.17163     359.7791     301.0197
   1427.15637     362.2935     303.4762   1427.15637     362.2935     303.4762
   1427.14111     364.5427     304.6924   1427.14111     364.5427     304.6924
   1427.12585     366.7375     307.0736   1427.12585     366.7375     307.0736
   1427.11060     369.6413     308.5957   1427.11060     369.6413     308.5957
   1427.09534     371.2691     310.9081   1427.09534     371.2691     310.9081
   1427.08008     373.2713     312.0838   1427.08008     373.2713     312.0838
   1427.06482     375.7896     314.6537   1427.06482     375.7896     314.6537
   1427.04956     378.4638     316.8991   1427.04956     378.4638     316.8991
   1427.03430     380.4586     318.5591   1427.03430     380.4586     318.5591
   1427.01904     382.8248     320.1277   1427.01904     382.8248     320.1277
   1427.00378     385.9738     322.7296   1427.00378     385.9738     322.7296
   1426.98853     386.9950     324.7147   1426.98853     386.9950     324.7147
   1426.97327     389.8549     327.0463   1426.97327     389.8549     327.0463
   1426.95801     392.2637     329.0680   1426.95801     392.2637     329.0680
   1426.94275     394.8690     330.9681   1426.94275     394.8690     330.9681
   1426.92749     396.8448     333.0423   1426.92749     396.8448     333.0423
   1426.91223     399.6859     335.0565   1426.91223     399.6859     335.0565
   1426.89697     402.3470     337.8027   1426.89697     402.3470     337.8027
   1426.88171     405.2197     339.5631   1426.88171     405.2197     339.5631
   1426.86646     407.3633     341.8527   1426.86646     407.3633     341.8527
   1426.85120     409.6138     343.7547   1426.85120     409.6138     343.7547
   1426.83594     412.1502     345.9056   1426.83594     412.1502     345.9056
   1426.82068     414.6854     347.9728   1426.82068     414.6854     347.9728
   1426.80542     417.4316     350.4334   1426.80542     417.4316     350.4334
   1426.79016     419.4543     352.2046   1426.79016     419.4543     352.2046
   1426.77490     422.3840     354.2344   1426.77490     422.3840     354.2344
   1426.75964     425.4905     356.2977   1426.75964     425.4905     356.2977
   1426.74438     427.7089     358.9419   1426.74438     427.7089     358.9419
   1426.72913     430.8980     360.7118   1426.72913     430.8980     360.7118
   1426.71387     432.1590     363.1151   1426.71387     432.1590     363.1151
   1426.69861     435.8476     364.8997   1426.69861     435.8476     364.8997
   1426.68335     437.9604     367.5245   1426.68335     437.9604     367.5245
   1426.66809     440.8396     369.8128   1426.66809     440.8396     369.8128
   1426.65283     443.8619     371.3917   1426.65283     443.8619     371.3917
   1426.63757     446.1535     373.7876   1426.63757     446.1535     373.7876
   1426.62231     449.8089     377.2723   1426.62231     449.8089     377.2723
   1426.60706     452.5152     378.7218   1426.60706     452.5152     378.7218
   1426.59180     455.3164     380.5226   1426.59180     455.3164     380.5226
   1426.57654     456.3466     382.6745   1426.57654     456.3466     382.6745
   1426.56128     459.2900     384.3835   1426.56128     459.2900     384.3835
   1426.54602     461.6914     386.2413   1426.54602     461.6914     386.2413
   1426.53076     464.1776     389.1636   1426.53076     464.1776     389.1636
   1426.51550     467.7949     390.9142   1426.51550     467.7949     390.9142
   1426.50024     469.8899     393.3270   1426.50024     469.8899     393.3270
   1426.48499     472.1468     395.0134   1426.48499     472.1468     395.0134
   1426.46973     475.7054     397.3518   1426.46973     475.7054     397.3518
   1426.45447     477.2542     399.9519   1426.45447     477.2542     399.9519
   1426.43921     479.9496     401.9101   1426.43921     479.9496     401.9101
   1426.42395     483.9883     403.7393   1426.42395     483.9883     403.7393
   1426.40869     485.3452     405.2665   1426.40869     485.3452     405.2665
   1426.39343     487.8711     407.4916   1426.39343     487.8711     407.4916
   1426.37817     490.2573     410.2448   1426.37817     490.2573     410.2448
   1426.36292     493.0664     411.6192   1426.36292     493.0664     411.6192
   1426.34766     496.0368     413.6350   1426.34766     496.0368     413.6350
   1426.33240     497.7945     415.6102   1426.33240     497.7945     415.6102
   1426.31714     500.2188     417.2247   1426.31714     500.2188     417.2247
   1426.30188     501.9822     419.4099   1426.30188     501.9822     419.4099
   1426.28662     505.8640     421.1084   1426.28662     505.8640     421.1084
   1426.27136     508.1480     423.1500   1426.27136     508.1480     423.1500
   1426.25610     510.2234     425.3860   1426.25610     510.2234     425.3860
   1426.24084     512.8334     427.2288   1426.24084     512.8334     427.2288
   1426.22559     514.8784     428.7537   1426.22559     514.8784     428.7537
   1426.21033     517.8022     430.7771   1426.21033     517.8022     430.7771
   1426.19507     519.9958     431.7019   1426.19507     519.9958     431.7019
   1426.17981     522.5448     434.0739   1426.17981     522.5448     434.0739
   1426.16455     524.5850     436.1281   1426.16455     524.5850     436.1281
   1426.14929     527.2160     438.8955   1426.14929     527.2160     438.8955
   1426.13403     528.9506     439.4750   1426.13403     528.9506     439.4750
   1426.11877     531.5057     441.9502   1426.11877     531.5057     441.9502
   1426.10352     534.1169     444.2079   1426.10352     534.1169     444.2079
   1426.08826     536.2718     444.8889   1426.08826     536.2718     444.8889
   1426.07300     538.9006     446.8477   1426.07300     538.9006     446.8477
   1426.05774     539.7726     448.7557   1426.05774     539.7726     448.7557
   1426.04248     542.2259     450.0380   1426.04248     542.2259     450.0380
   1426.02722     545.3167     451.9063   1426.02722     545.3167     451.9063
   1426.01196     546.5163     453.2262   1426.01196     546.5163     453.2262
   1425.99670     549.0710     455.4512   1425.99670     549.0710     455.4512
   1425.98145     551.4555     456.9656   1425.98145     551.4555     456.9656
   1425.96619     553.2545     458.9813   1425.96619     553.2545     458.9813
   1425.95093     555.3386     459.5814   1425.95093     555.3386     459.5814
   1425.93567     556.7532     460.9445   1425.93567     556.7532     460.9445
   1425.92041     558.4741     463.1039   1425.92041     558.4741     463.1039
   1425.90515     560.5300     465.2995   1425.90515     560.5300     465.2995
   1425.88989     562.8328     464.9489   1425.88989     562.8328     464.9489
   1425.87463     564.4943     467.5735   1425.87463     564.4943     467.5735
   1425.85938     566.5259     469.6981   1425.85938     566.5259     469.6981
   1425.84412     568.6297     470.5915   1425.84412     568.6297     470.5915
   1425.82886     570.4556     471.4281   1425.82886     570.4556     471.4281
   1425.81360     572.7007     473.2838   1425.81360     572.7007     473.2838
   1425.79834     576.0549     475.3570   1425.79834     576.0549     475.3570
   1425.78308     575.1338     476.1079   1425.78308     575.1338     476.1079
   1425.76782     576.9592     477.3154   1425.76782     576.9592     477.3154
   1425.75256     579.4117     479.4821   1425.75256     579.4117     479.4821
   1425.73730     580.1975     479.7368   1425.73730     580.1975     479.7368
   1425.72205     582.7704     480.9947   1425.72205     582.7704     480.9947
   1425.70679     583.9252     483.3619   1425.70679     583.9252     483.3619
   1425.69153     585.0142     483.9478   1425.69153     585.0142     483.9478
   1425.67627     587.3038     485.1463   1425.67627     587.3038     485.1463
   1425.66101     588.8724     486.3372   1425.66101     588.8724     486.3372
   1425.64575     590.4955     486.8004   1425.64575     590.4955     486.8004
   1425.63049     591.3376     488.4711   1425.63049     591.3376     488.4711
   1425.61523     593.0453     489.9162   1425.61523     593.0453     489.9162
   1425.59998     594.0043     490.7684   1425.59998     594.0043     490.7684
   1425.58472     596.4975     492.0073   1425.58472     596.4975     492.0073
   1425.56946     597.7770     493.0333   1425.56946     597.7770     493.0333
   1425.55420     597.2338     494.5164   1425.55420     597.2338     494.5164
   1425.53894     599.4152     495.5426   1425.53894     599.4152     495.5426
   1425.52368     600.4155     495.8325   1425.52368     600.4155     495.8325
   1425.50842     601.5543     496.5755   1425.50842     601.5543     496.5755
   1425.49316     603.4196     498.1147   1425.49316     603.4196     498.1147
   1425.47791     604.5375     500.0470   1425.47791     604.5375     500.0470
   1425.46265     605.2639     500.7433   1425.46265     605.2639     500.7433
   1425.44739     606.7423     501.4264   1425.44739     606.7423     501.4264
   1425.43213     607.9831     502.7358   1425.43213     607.9831     502.7358
   1425.41687     609.1487     503.7955   1425.41687     609.1487     503.7955
   1425.40161     610.2360     504.9620   1425.40161     610.2360     504.9620
   1425.38635     611.8196     505.5885   1425.38635     611.8196     505.5885
   1425.37109     612.4397     506.2786   1425.37109     612.4397     506.2786
   1425.35583     613.6580     506.1115   1425.35583     613.6580     506.1115
   1425.34058     612.6802     507.1657   1425.34058     612.6802     507.1657
   1425.32532     614.8907     508.1038   1425.32532     614.8907     508.1038
   1425.31006     615.4944     508.4868   1425.31006     615.4944     508.4868
   1425.29480     616.3021     509.8435   1425.29480     616.3021     509.8435
   1425.27954     617.6635     509.9196   1425.27954     617.6635     509.9196
   1425.26428     617.6858     510.5511   1425.26428     617.6858     510.5511
   1425.24902     619.5131     512.3120   1425.24902     619.5131     512.3120
   1425.23376     618.9656     512.3826   1425.23376     618.9656     512.3826
   1425.21851     620.1116     514.4540   1425.21851     620.1116     514.4540
   1425.20325     620.6219     513.6837   1425.20325     620.6219     513.6837
   1425.18799     622.2734     514.2581   1425.18799     622.2734     514.2581
   1425.17273     623.2834     514.9567   1425.17273     623.2834     514.9567
   1425.15747     623.2571     515.6498   1425.15747     623.2571     515.6498
   1425.14221     624.1522     516.7001   1425.14221     624.1522     516.7001
   1425.12695     626.0449     516.9390   1425.12695     626.0449     516.9390
   1425.11169     623.9437     517.1290   1425.11169     623.9437     517.1290
   1425.09644     625.7741     519.1871   1425.09644     625.7741     519.1871
   1425.08118     625.4085     518.8473   1425.08118     625.4085     518.8473
   1425.06592     626.5961     519.1299   1425.06592     626.5961     519.1299
   1425.05066     627.2016     519.5082   1425.05066     627.2016     519.5082
   1425.03540     627.1354     520.8785   1425.03540     627.1354     520.8785
   1425.02014     628.3738     521.5402   1425.02014     628.3738     521.5402
   1425.00488     628.8489     521.2921   1425.00488     628.8489     521.2921
   1424.98962     630.4121     523.0767   1424.98962     630.4121     523.0767
   1424.97437     629.3802     522.4164   1424.97437     629.3802     522.4164
   1424.95911     629.8443     522.4675   1424.95911     629.8443     522.4675
   1424.94385     629.4644     521.6494   1424.94385     629.4644     521.6494
   1424.92859     629.7783     523.8120   1424.92859     629.7783     523.8120
   1424.91333     630.4034     523.9854   1424.91333     630.4034     523.9854
   1424.89807     630.5756     523.5374   1424.89807     630.5756     523.5374
   1424.88281     631.8246     524.4578   1424.88281     631.8246     524.4578
   1424.86755     630.6454     524.4518   1424.86755     630.6454     524.4518
   1424.85229     631.9531     524.7563   1424.85229     631.9531     524.7563
   1424.83704     630.2256     525.2696   1424.83704     630.2256     525.2696
   1424.82178     631.9568     524.9068   1424.82178     631.9568     524.9068
   1424.80652     631.7838     525.5630   1424.80652     631.7838     525.5630
   1424.79126     631.6307     525.2051   1424.79126     631.6307     525.2051
   1424.77600     632.7614     526.3188   1424.77600     632.7614     526.3188
   1424.76074     632.1028     525.6106   1424.76074     632.1028     525.6106
   1424.74548     631.9841     526.3855   1424.74548     631.9841     526.3855
   1424.73022     632.3323     526.6273   1424.73022     632.3323     526.6273
   1424.71497     632.2657     526.6835   1424.71497     632.2657     526.6835
   1424.69971     632.6432     527.3278   1424.69971     632.6432     527.3278
   1424.68445     632.1804     527.2498   1424.68445     632.1804     527.2498
   1424.66919     631.5570     527.1193   1424.66919     631.5570     527.1193
   1424.65393     631.5875     527.6481   1424.65393     631.5875     527.6481
   1424.63867     631.2198     527.5399   1424.63867     631.2198     527.5399
   1424.62341     631.8196     528.5608   1424.62341     631.8196     528.5608
   1424.60815     631.3105     527.5347   1424.60815     631.3105     527.5347
   1424.59290     631.5157     528.5549   1424.59290     631.5157     528.5549
   1424.57764     631.8983     528.7615   1424.57764     631.8983     528.7615
   1424.56238     630.4535     527.4667   1424.56238     630.4535     527.4667
   1424.54712     631.9189     528.1710   1424.54712     631.9189     528.1710
   1424.53186     630.3975     528.5696   1424.53186     630.3975     528.5696
   1424.51660     630.5739     528.3564   1424.51660     630.5739     528.3564
   1424.50134     629.9775     528.8530   1424.50134     629.9775     528.8530
   1424.48608     630.1866     528.2750   1424.48608     630.1866     528.2750
   1424.47083     631.0465     528.9368   1424.47083     631.0465     528.9368
   1424.45557     630.0310     528.8973   1424.45557     630.0310     528.8973
   1424.44031     630.5769     529.1334   1424.44031     630.5769     529.1334
   1424.42505     630.0446     528.5800   1424.42505     630.0446     528.5800
   1424.40979     628.2623     528.5974   1424.40979     628.2623     528.5974
   1424.39453     629.4565     528.5920   1424.39453     629.4565     528.5920
   1424.37927     629.5663     528.7203   1424.37927     629.5663     528.7203
   1424.36401     629.2219     528.7203   1424.36401     629.2219     528.7203
   1424.34875     628.5829     528.1492   1424.34875     628.5829     528.1492
   1424.33350     627.6765     528.7153   1424.33350     627.6765     528.7153
   1424.31824     627.7466     528.8059   1424.31824     627.7466     528.8059
   1424.30298     627.6276     528.2775   1424.30298     627.6276     528.2775
   1424.28772     626.3582     529.0277   1424.28772     626.3582     529.0277
   1424.27246     626.9473     527.9918   1424.27246     626.9473     527.9918
   1424.25720     625.8899     528.7687   1424.25720     625.8899     528.7687
   1424.24194     626.0412     528.0433   1424.24194     626.0412     528.0433
   1424.22668     627.0645     528.2956   1424.22668     627.0645     528.2956
   1424.21143     624.2708     528.0076   1424.21143     624.2708     528.0076
   1424.19617     623.9946     527.7257   1424.19617     623.9946     527.7257
   1424.18091     624.7824     527.7960   1424.18091     624.7824     527.7960
   1424.16565     624.9857     527.7246   1424.16565     624.9857     527.7246
   1424.15039     624.1063     527.2219   1424.15039     624.1063     527.2219
   1424.13513     623.8519     526.2119   1424.13513     623.8519     526.2119
   1424.11987     623.9680     526.9514   1424.11987     623.9680     526.9514
   1424.10461     622.1897     527.6133   1424.10461     622.1897     527.6133
   1424.08936     622.0270     526.2269   1424.08936     622.0270     526.2269
   1424.07410     621.2015     526.0630   1424.07410     621.2015     526.0630
   1424.05884     621.3676     525.6857   1424.05884     621.3676     525.6857
   1424.04358     621.9763     526.1040   1424.04358     621.9763     526.1040
   1424.02832     620.7214     525.3268   1424.02832     620.7214     525.3268
   1424.01306     619.4966     526.2855   1424.01306     619.4966     526.2855
   1423.99780     619.3866     525.5358   1423.99780     619.3866     525.5358
   1423.98254     619.4285     525.1575   1423.98254     619.4285     525.1575
   1423.96729     619.6813     526.3841   1423.96729     619.6813     526.3841
   1423.95203     619.0620     524.8776   1423.95203     619.0620     524.8776
   1423.93677     617.9141     524.7551   1423.93677     617.9141     524.7551
   1423.92151     618.8434     524.8603   1423.92151     618.8434     524.8603
   1423.90625     617.2920     523.6078   1423.90625     617.2920     523.6078
   1423.89099     616.6138     524.3984   1423.89099     616.6138     524.3984
   1423.87573     616.3841     523.0929   1423.87573     616.3841     523.0929
   1423.86047     615.8939     522.5013   1423.86047     615.8939     522.5013
   1423.84521     615.3384     523.1544   1423.84521     615.3384     523.1544
   1423.82996     615.4263     522.8564   1423.82996     615.4263     522.8564
   1423.81470     615.0853     522.2131   1423.81470     615.0853     522.2131
   1423.79944     614.1534     521.7214   1423.79944     614.1534     521.7214
   1423.78418     614.6281     521.5978   1423.78418     614.6281     521.5978
   1423.76892     613.6184     521.1342   1423.76892     613.6184     521.1342
   1423.75366     612.2067     520.3102   1423.75366     612.2067     520.3102
   1423.73840     611.4965     521.0078   1423.73840     611.4965     521.0078
   1423.72314     612.4997     519.8282   1423.72314     612.4997     519.8282
   1423.70789     611.3632     519.3127   1423.70789     611.3632     519.3127
   1423.69263     611.2872     519.5024   1423.69263     611.2872     519.5024
   1423.67737     609.9626     518.6611   1423.67737     609.9626     518.6611
   1423.66211     610.3684     518.7081   1423.66211     610.3684     518.7081
   1423.64685     609.4583     517.7225   1423.64685     609.4583     517.7225
   1423.63159     608.8892     518.0412   1423.63159     608.8892     518.0412
   1423.61633     608.6544     517.3929   1423.61633     608.6544     517.3929
   1423.60107     609.2202     517.1719   1423.60107     609.2202     517.1719
   1423.58582     608.8452     516.9327   1423.58582     608.8452     516.9327
   1423.57056     607.8508     516.5459   1423.57056     607.8508     516.5459
   1423.55530     607.0990     515.3904   1423.55530     607.0990     515.3904
   1423.54004     606.8785     515.1121   1423.54004     606.8785     515.1121
   1423.52478     605.8344     514.7958   1423.52478     605.8344     514.7958
   1423.50952     606.1177     514.1830   1423.50952     606.1177     514.1830
   1423.49426     605.4282     513.8618   1423.49426     605.4282     513.8618
   1423.47900     603.9197     512.7693   1423.47900     603.9197     512.7693
   1423.46375     604.0023     512.1647   1423.46375     604.0023     512.1647
   1423.44849     604.1090     511.9978   1423.44849     604.1090     511.9978
   1423.43323     602.8739     511.9021   1423.43323     602.8739     511.9021
   1423.41797     602.7319     510.1329   1423.41797     602.7319     510.1329
   1423.40271     602.9203     511.5458   1423.40271     602.9203     511.5458
   1423.38745     602.5039     509.5892   1423.38745     602.5039     509.5892
   1423.37219     600.7048     510.0293   1423.37219     600.7048     510.0293
   1423.35693     601.2286     509.2611   1423.35693     601.2286     509.2611
   1423.34167     601.4314     508.4694   1423.34167     601.4314     508.4694
   1423.32642     600.4749     508.5806   1423.32642     600.4749     508.5806
   1423.31116     599.5887     507.7729   1423.31116     599.5887     507.7729
   1423.29590     598.2744     506.9744   1423.29590     598.2744     506.9744
   1423.28064     598.5952     506.1373   1423.28064     598.5952     506.1373
   1423.26538     598.3697     505.5933   1423.26538     598.3697     505.5933
   1423.25012     599.0099     505.0173   1423.25012     599.0099     505.0173
   1423.23486     596.7139     504.7027   1423.23486     596.7139     504.7027
   1423.21960     597.1836     504.0736   1423.21960     597.1836     504.0736
   1423.20435     597.6696     503.5170   1423.20435     597.6696     503.5170
   1423.18909     597.4108     502.9418   1423.18909     597.4108     502.9418
   1423.17383     595.5558     502.2959   1423.17383     595.5558     502.2959
   1423.15857     596.3593     501.2128   1423.15857     596.3593     501.2128
   1423.14331     595.2866     500.7132   1423.14331     595.2866     500.7132
   1423.12805     595.0272     500.2523   1423.12805     595.0272     500.2523
   1423.11279     595.6122     499.6992   1423.11279     595.6122     499.6992
   1423.09753     594.1298     498.8893   1423.09753     594.1298     498.8893
   1423.08228     594.3077     497.4787   1423.08228     594.3077     497.4787
   1423.06702     594.1436     497.8071   1423.06702     594.1436     497.8071
   1423.05176     593.1315     497.0967   1423.05176     593.1315     497.0967
   1423.03650     592.7728     496.8264   1423.03650     592.7728     496.8264
   1423.02124     592.8102     495.7870   1423.02124     592.8102     495.7870
   1423.00598     592.8109     495.0739   1423.00598     592.8109     495.0739
   1422.99072     592.7810     493.9958   1422.99072     592.7810     493.9958
   1422.97546     591.9939     494.0364   1422.97546     591.9939     494.0364
   1422.96021     592.7336     493.5034   1422.96021     592.7336     493.5034
   1422.94495     590.7098     492.4593   1422.94495     590.7098     492.4593
   1422.92969     590.8945     490.9416   1422.92969     590.8945     490.9416
   1422.91443     590.6152     490.6754   1422.91443     590.6152     490.6754
   1422.89917     589.6406     489.4846   1422.89917     589.6406     489.4846
   1422.88391     589.1010     489.7894   1422.88391     589.1010     489.7894
   1422.86865     589.2083     488.9355   1422.86865     589.2083     488.9355
   1422.85339     589.9140     488.2355   1422.85339     589.9140     488.2355
   1422.83813     588.8754     487.0869   1422.83813     588.8754     487.0869
   1422.82288     588.3503     486.2951   1422.82288     588.3503     486.2951
   1422.80762     588.1414     486.0982   1422.80762     588.1414     486.0982
   1422.79236     587.7273     484.3736   1422.79236     587.7273     484.3736
   1422.77710     588.0007     483.9784   1422.77710     588.0007     483.9784
   1422.76184     588.5163     483.1813   1422.76184     588.5163     483.1813
   1422.74658     587.1111     482.9821   1422.74658     587.1111     482.9821
   1422.73132     586.9143     482.4950   1422.73132     586.9143     482.4950
   1422.71606     586.1152     480.3537   1422.71606     586.1152     480.3537
   1422.70081     586.3827     480.1244   1422.70081     586.3827     480.1244
   1422.68555     584.7514     480.1835   1422.68555     584.7514     480.1835
   1422.67029     585.3558     479.2369   1422.67029     585.3558     479.2369
   1422.65503     586.6112     478.5671   1422.65503     586.6112     478.5671
   1422.63977     585.0013     476.9582   1422.63977     585.0013     476.9582
   1422.62451     584.7741     476.4204   1422.62451     584.7741     476.4204
   1422.60925     584.7643     475.7519   1422.60925     584.7643     475.7519
   1422.59399     584.4024     474.7806   1422.59399     584.4024     474.7806
   1422.57874     584.7884     474.1208   1422.57874     584.7884     474.1208
   1422.56348     583.8168     473.7280   1422.56348     583.8168     473.7280
   1422.54822     583.6820     472.0934   1422.54822     583.6820     472.0934
   1422.53296     583.9273     471.8885   1422.53296     583.9273     471.8885
   1422.51770     583.6779     470.6066   1422.51770     583.6779     470.6066
   1422.50244     583.5330     470.1739   1422.50244     583.5330     470.1739
   1422.48718     582.8677     469.8730   1422.48718     582.8677     469.8730
   1422.47192     583.1898     467.9119   1422.47192     583.1898     467.9119
   1422.45667     582.4172     467.7551   1422.45667     582.4172     467.7551
   1422.44141     582.8574     466.7054   1422.44141     582.8574     466.7054
   1422.42615     581.7672     466.3846   1422.42615     581.7672     466.3846
   1422.41089     582.6853     465.0625   1422.41089     582.6853     465.0625
   1422.39563     582.2817     464.4927   1422.39563     582.2817     464.4927
   1422.38037     582.0395     463.5009   1422.38037     582.0395     463.5009
   1422.36511     581.4905     463.1544   1422.36511     581.4905     463.1544
   1422.34985     581.7265     461.6645   1422.34985     581.7265     461.6645
   1422.33459     581.0579     460.8275   1422.33459     581.0579     460.8275
   1422.31934     581.0367     460.2410   1422.31934     581.0367     460.2410
   1422.30408     581.3662     459.8911   1422.30408     581.3662     459.8911
   1422.28882     580.3136     458.6404   1422.28882     580.3136     458.6404
   1422.27356     580.1232     458.0465   1422.27356     580.1232     458.0465
   1422.25830     580.7582     457.1823   1422.25830     580.7582     457.1823
   1422.24304     580.9926     458.7761   1422.24304     580.9926     458.7761
   1422.22778     580.5201     456.0482   1422.22778     580.5201     456.0482
   1422.21252     579.1635     454.1144   1422.21252     579.1635     454.1144
   1422.19727     580.2800     453.7976   1422.19727     580.2800     453.7976
   1422.18201     579.6731     453.1355   1422.18201     579.6731     453.1355
   1422.16675     579.7524     452.2463   1422.16675     579.7524     452.2463
   1422.15149     578.7320     450.8574   1422.15149     578.7320     450.8574
   1422.13623     578.5032     449.6725   1422.13623     578.5032     449.6725
   1422.12097     578.1759     449.5899   1422.12097     578.1759     449.5899
   1422.10571     579.0585     448.3888   1422.10571     579.0585     448.3888
   1422.09045     579.6837     448.0817   1422.09045     579.6837     448.0817
   1422.07520     578.1842     446.7239   1422.07520     578.1842     446.7239
   1422.05994     577.5507     446.2200   1422.05994     577.5507     446.2200
   1422.04468     578.7184     444.9771   1422.04468     578.7184     444.9771
   1422.02942     577.4586     444.2560   1422.02942     577.4586     444.2560
   1422.01416     578.4177     443.2807   1422.01416     578.4177     443.2807
   1421.99890     578.0271     442.8964   1421.99890     578.0271     442.8964
   1421.98364     576.7654     442.2249   1421.98364     576.7654     442.2249
   1421.96838     577.5059     440.7902   1421.96838     577.5059     440.7902
   1421.95312     576.6819     440.0863   1421.95312     576.6819     440.0863
   1421.93787     577.0601     439.0081   1421.93787     577.0601     439.0081
   1421.92261     577.2766     438.1239   1421.92261     577.2766     438.1239
   1421.90735     576.6611     437.7333   1421.90735     576.6611     437.7333
   1421.89209     577.4482     436.6940   1421.89209     577.4482     436.6940
   1421.87683     577.4678     436.2573   1421.87683     577.4678     436.2573
   1421.86157     576.7735     435.0451   1421.86157     576.7735     435.0451
   1421.84631     576.6846     434.5605   1421.84631     576.6846     434.5605
   1421.83105     576.8575     433.2103   1421.83105     576.8575     433.2103
   1421.81580     576.8456     431.7721   1421.81580     576.8456     431.7721
   1421.80054     576.9216     432.1348   1421.80054     576.9216     432.1348
   1421.78528     576.7234     430.9023   1421.78528     576.7234     430.9023
   1421.77002     576.0182     430.0279   1421.77002     576.0182     430.0279
   1421.75476     575.1425     429.0659   1421.75476     575.1425     429.0659
   1421.73950     575.0913     428.4646   1421.73950     575.0913     428.4646
   1421.72424     575.5195     428.3364   1421.72424     575.5195     428.3364
   1421.70898     575.5931     427.2711   1421.70898     575.5931     427.2711
   1421.69373     574.9265     426.3537   1421.69373     574.9265     426.3537
   1421.67847     574.9788     424.6864   1421.67847     574.9788     424.6864
   1421.66321     574.3555     424.8880   1421.66321     574.3555     424.8880
   1421.64795     575.2579     423.9461   1421.64795     575.2579     423.9461
   1421.63269     574.9451     422.7357   1421.63269     574.9451     422.7357
   1421.61743     574.7595     422.2165   1421.61743     574.7595     422.2165
   1421.60217     574.5944     421.2296   1421.60217     574.5944     421.2296
   1421.58691     575.1067     420.4807   1421.58691     575.1067     420.4807
   1421.57166     574.6757     420.4602   1421.57166     574.6757     420.4602
   1421.55640     573.8577     418.1063   1421.55640     573.8577     418.1063
   1421.54114     574.8398     416.8963   1421.54114     574.8398     416.8963
   1421.52588     574.6612     416.9813   1421.52588     574.6612     416.9813
   1421.51062     574.0001     416.4474   1421.51062     574.0001     416.4474
   1421.49536     574.1537     415.5469   1421.49536     574.1537     415.5469
   1421.48010     574.1619     414.9827   1421.48010     574.1619     414.9827
   1421.46484     574.6537     414.0418   1421.46484     574.6537     414.0418
   1421.44958     574.5469     413.7758   1421.44958     574.5469     413.7758
   1421.43433     575.3436     413.3683   1421.43433     575.3436     413.3683
   1421.41907     578.1581     414.4138   1421.41907     578.1581     414.4138
   1421.40381     577.7197     414.0486   1421.40381     577.7197     414.0486
   1421.38855     577.4275     411.8005   1421.38855     577.4275     411.8005
   1421.37329     575.8653     410.5748   1421.37329     575.8653     410.5748
   1421.35803     575.6185     409.1279   1421.35803     575.6185     409.1279
   1421.34277     574.8505     409.0845   1421.34277     574.8505     409.0845
   1421.32751     574.0049     407.8450   1421.32751     574.0049     407.8450
   1421.31226     574.9106     407.6662   1421.31226     574.9106     407.6662
   1421.29700     574.5471     406.2036   1421.29700     574.5471     406.2036
   1421.28174     575.2540     405.9236   1421.28174     575.2540     405.9236
   1421.26648     574.4946     404.7084   1421.26648     574.4946     404.7084
   1421.25122     574.6457     404.4012   1421.25122     574.6457     404.4012
   1421.23596     574.8777     403.3854   1421.23596     574.8777     403.3854
   1421.22070     574.8864     402.9233   1421.22070     574.8864     402.9233
   1421.20544     574.8876     402.3217   1421.20544     574.8876     402.3217
   1421.19019     574.8184     401.8685   1421.19019     574.8184     401.8685
   1421.17493     574.0791     399.7763   1421.17493     574.0791     399.7763
   1421.15967     574.4192     400.0081   1421.15967     574.4192     400.0081
   1421.14441     573.3300     398.6666   1421.14441     573.3300     398.6666
   1421.12915     573.4440     398.2896   1421.12915     573.4440     398.2896
   1421.11389     573.4233     396.6891   1421.11389     573.4233     396.6891
   1421.09863     572.9378     396.1518   1421.09863     572.9378     396.1518
   1421.08337     573.4950     395.7606   1421.08337     573.4950     395.7606
   1421.06812     573.6634     395.6457   1421.06812     573.6634     395.6457
   1421.05286     574.2726     394.5093   1421.05286     574.2726     394.5093
   1421.03760     574.3636     394.1745   1421.03760     574.3636     394.1745
   1421.02234     575.4794     394.5567   1421.02234     575.4794     394.5567
   1421.00708     575.4084     394.2531   1421.00708     575.4084     394.2531
   1420.99182     577.9631     394.7065   1420.99182     577.9631     394.7065
   1420.97656     581.2581     397.1047   1420.97656     581.2581     397.1047
   1420.96130     589.9594     401.1869   1420.96130     589.9594     401.1869
   1420.94604     611.1622     414.4118   1420.94604     611.1622     414.4118
   1420.93079     648.3677     438.9592   1420.93079     648.3677     438.9592
   1420.91553     690.3013     465.9032   1420.91553     690.3013     465.9032
   1420.90027     739.3499     497.9142   1420.90027     739.3499     497.9142
   1420.88501     742.0555     498.6421   1420.88501     742.0555     498.6421
   1420.86975     776.0703     518.2470   1420.86975     776.0703     518.2470
   1420.85449     743.0600     496.0123   1420.85449     743.0600     496.0123
   1420.83923     736.1891     492.2082   1420.83923     736.1891     492.2082
   1420.82397     773.5533     515.3920   1420.82397     773.5533     515.3920
   1420.80872     757.1567     503.6860   1420.80872     757.1567     503.6860
   1420.79346     745.3647     495.7085   1420.79346     745.3647     495.7085
   1420.77820     760.9561     504.0858   1420.77820     760.9561     504.0858
   1420.76294     719.2851     476.0105   1420.76294     719.2851     476.0105
   1420.74768     793.6915     523.9418   1420.74768     793.6915     523.9418
   1420.73242    1032.0730     675.3801   1420.73242    1032.0730     675.3801
   1420.71716    1410.3873     916.4733   1420.71716    1410.3873     916.4733
   1420.70190    1621.4620    1049.5480   1420.70190    1621.4620    1049.5480
   1420.68665    1674.1991    1080.5558   1420.68665    1674.1991    1080.5558
   1420.67139    1695.5900    1097.7980   1420.67139    1695.5900    1097.7980
   1420.65613    1693.9252    1091.4264   1420.65613    1693.9252    1091.4264
   1420.64087    1804.9746    1164.7166   1420.64087    1804.9746    1164.7166
   1420.62561    1814.8010    1164.2727   1420.62561    1814.8010    1164.2727
   1420.61035    1698.4926    1089.0190   1420.61035    1698.4926    1089.0190
   1420.59509    1434.2141     922.4432   1420.59509    1434.2141     922.4432
   1420.57983    1128.2689     726.8735   1420.57983    1128.2689     726.8735
   1420.56458     945.9827     610.8144   1420.56458     945.9827     610.8144
   1420.54932     922.2327     592.9802   1420.54932     922.2327     592.9802
   1420.53406    1066.6210     684.9433   1420.53406    1066.6210     684.9433
   1420.51880    1300.2988     830.3314   1420.51880    1300.2988     830.3314
   1420.50354    1335.7837     848.7445   1420.50354    1335.7837     848.7445
   1420.48828    1269.5983     807.9424   1420.48828    1269.5983     807.9424
   1420.47302    1153.5347     736.7834   1420.47302    1153.5347     736.7834
   1420.45776    1259.8623     799.4229   1420.45776    1259.8623     799.4229
   1420.44250    1377.2871     870.6924   1420.44250    1377.2871     870.6924
   1420.42725    1304.6685     826.2938   1420.42725    1304.6685     826.2938
   1420.41199    1057.4752     671.4284   1420.41199    1057.4752     671.4284
   1420.39673     777.4736     496.2893   1420.39673     777.4736     496.2893
   1420.38147     652.7571     418.5505   1420.38147     652.7571     418.5505
   1420.36621     611.7924     392.6122   1420.36621     611.7924     392.6122
   1420.35095     592.0999     380.0782   1420.35095     592.0999     380.0782
   1420.33569     583.5412     373.7600   1420.33569     583.5412     373.7600
   1420.32043     578.0479     370.5410   1420.32043     578.0479     370.5410
   1420.30518     575.0802     368.0052   1420.30518     575.0802     368.0052
   1420.28992     573.4327     366.6982   1420.28992     573.4327     366.6982
   1420.27466     572.1082     365.6783   1420.27466     572.1082     365.6783
   1420.25940     570.9929     363.9616   1420.25940     570.9929     363.9616
   1420.24414     570.6768     363.6250   1420.24414     570.6768     363.6250
   1420.22888     569.6764     362.4567   1420.22888     569.6764     362.4567
   1420.21362     569.4006     361.6185   1420.21362     569.4006     361.6185
   1420.19836     568.4260     361.0707   1420.19836     568.4260     361.0707
   1420.18311     567.2009     359.9166   1420.18311     567.2009     359.9166
   1420.16785     566.2878     359.0447   1420.16785     566.2878     359.0447
   1420.15259     566.1913     358.7664   1420.15259     566.1913     358.7664
   1420.13733     565.6408     357.8214   1420.13733     565.6408     357.8214
   1420.12207     565.2969     357.3936   1420.12207     565.2969     357.3936
   1420.10681     565.5182     356.5818   1420.10681     565.5182     356.5818
   1420.09155     563.8303     356.4419   1420.09155     563.8303     356.4419
   1420.07629     564.5372     355.3081   1420.07629     564.5372     355.3081
   1420.06104     563.9457     355.0521   1420.06104     563.9457     355.0521
   1420.04578     563.8578     354.7760   1420.04578     563.8578     354.7760
   1420.03052     563.6978     354.3969   1420.03052     563.6978     354.3969
   1420.01526     566.3661     355.7196   1420.01526     566.3661     355.7196
   1420.00000     566.4947     356.1814   1420.00000     566.4947     356.1814
   1419.98474     566.6229     356.6429   1419.98474     566.6229     356.6429
   1419.96948     566.5518     354.1613   1419.96948     566.5518     354.1613
   1419.95422     563.3320     352.4617   1419.95422     563.3320     352.4617
   1419.93896     563.2335     352.0609   1419.93896     563.2335     352.0609
   1419.92371     563.1293     351.6909   1419.92371     563.1293     351.6909
   1419.90845     564.3156     351.1040   1419.90845     564.3156     351.1040
   1419.89319     563.9798     351.2142   1419.89319     563.9798     351.2142
   1419.87793     563.8024     351.1695   1419.87793     563.8024     351.1695
   1419.86267     563.6852     351.1847   1419.86267     563.6852     351.1847
   1419.84741     563.4032     350.5723   1419.84741     563.4032     350.5723
   1419.83215     564.1504     350.3388   1419.83215     564.1504     350.3388
   1419.81689     563.8680     350.2955   1419.81689     563.8680     350.2955
   1419.80164     564.2565     349.7604   1419.80164     564.2565     349.7604
   1419.78638     562.6118     349.9722   1419.78638     562.6118     349.9722
   1419.77112     563.9775     349.2070   1419.77112     563.9775     349.2070
   1419.75586     564.0749     350.1631   1419.75586     564.0749     350.1631
   1419.74060     563.8422     349.9179   1419.74060     563.8422     349.9179
   1419.72534     564.5451     349.5676   1419.72534     564.5451     349.5676
   1419.71008     564.1310     349.8111   1419.71008     564.1310     349.8111
   1419.69482     564.7760     349.3645   1419.69482     564.7760     349.3645
   1419.67957     565.4307     348.4107   1419.67957     565.4307     348.4107
   1419.66431     565.2683     348.6700   1419.66431     565.2683     348.6700
   1419.64905     565.0449     349.0939   1419.64905     565.0449     349.0939
   1419.63379     564.9227     348.9001   1419.63379     564.9227     348.9001
   1419.61853     565.7053     348.4521   1419.61853     565.7053     348.4521
   1419.60327     566.0025     348.5734   1419.60327     566.0025     348.5734
   1419.58801     566.0276     348.5253   1419.58801     566.0276     348.5253
   1419.57275     566.6146     348.4022   1419.57275     566.6146     348.4022
   1419.55750     566.8039     348.4617   1419.55750     566.8039     348.4617
   1419.54224     566.9210     348.6676   1419.54224     566.9210     348.6676
   1419.52698     567.0980     348.3313   1419.52698     567.0980     348.3313
   1419.51172     568.0372     348.1304   1419.51172     568.0372     348.1304
   1419.49646     568.0461     348.9163   1419.49646     568.0461     348.9163
   1419.48120     567.2433     348.6675   1419.48120     567.2433     348.6675
   1419.46594     567.1566     348.8272   1419.46594     567.1566     348.8272
   1419.45068     568.3104     348.4664   1419.45068     568.3104     348.4664
   1419.43542     568.3760     348.8039   1419.43542     568.3760     348.8039
   1419.42017     569.1982     348.9559   1419.42017     569.1982     348.9559
   1419.40491     569.0147     348.7881   1419.40491     569.0147     348.7881
   1419.38965     569.6113     348.4442   1419.38965     569.6113     348.4442
   1419.37439     569.9471     349.2371   1419.37439     569.9471     349.2371
   1419.35913     571.0224     349.5372   1419.35913     571.0224     349.5372
   1419.34387     569.7374     349.6743   1419.34387     569.7374     349.6743
   1419.32861     570.4003     349.3441   1419.32861     570.4003     349.3441
   1419.31335     570.2392     350.1474   1419.31335     570.2392     350.1474
   1419.29810     572.4065     349.4586   1419.29810     572.4065     349.4586
   1419.28284     570.6933     350.2302   1419.28284     570.6933     350.2302
   1419.26758     571.9529     350.9419   1419.26758     571.9529     350.9419
   1419.25232     571.6741     350.5175   1419.25232     571.6741     350.5175
   1419.23706     571.6458     349.9388   1419.23706     571.6458     349.9388
   1419.22180     572.4344     350.6479   1419.22180     572.4344     350.6479
   1419.20654     572.6591     350.9861   1419.20654     572.6591     350.9861
   1419.19128     572.6756     350.4804   1419.19128     572.6756     350.4804
   1419.17603     573.9210     351.6418   1419.17603     573.9210     351.6418
   1419.16077     573.5052     351.8914   1419.16077     573.5052     351.8914
   1419.14551     574.3191     352.3316   1419.14551     574.3191     352.3316
   1419.13025     575.0524     352.2561   1419.13025     575.0524     352.2561
   1419.11499     575.7192     352.8961   1419.11499     575.7192     352.8961
   1419.09973     575.9150     353.4543   1419.09973     575.9150     353.4543
   1419.08447     575.4676     352.6809   1419.08447     575.4676     352.6809
   1419.06921     576.1900     353.0370   1419.06921     576.1900     353.0370
   1419.05396     576.0548     353.7228   1419.05396     576.0548     353.7228
   1419.03870     577.5343     354.2881   1419.03870     577.5343     354.2881
   1419.02344     576.6996     354.4450   1419.02344     576.6996     354.4450
   1419.00818     577.3268     354.5259   1419.00818     577.3268     354.5259
   1418.99292     578.4959     354.7068   1418.99292     578.4959     354.7068
   1418.97766     578.2916     355.2920   1418.97766     578.2916     355.2920
   1418.96240     579.4791     355.7082   1418.96240     579.4791     355.7082
   1418.94714     579.2157     356.0739   1418.94714     579.2157     356.0739
   1418.93188     580.2784     356.3405   1418.93188     580.2784     356.3405
   1418.91663     580.0922     357.0007   1418.91663     580.0922     357.0007
   1418.90137     581.8409     357.2630   1418.90137     581.8409     357.2630
   1418.88611     580.6553     357.7026   1418.88611     580.6553     357.7026
   1418.87085     581.8245     358.3139   1418.87085     581.8245     358.3139
   1418.85559     582.4846     358.7267   1418.85559     582.4846     358.7267
   1418.84033     582.2979     359.0367   1418.84033     582.2979     359.0367
   1418.82507     582.9625     359.4402   1418.82507     582.9625     359.4402
   1418.80981     583.5600     359.7917   1418.80981     583.5600     359.7917
   1418.79456     583.6774     360.1819   1418.79456     583.6774     360.1819
   1418.77930     584.5992     360.8996   1418.77930     584.5992     360.8996
   1418.76404     586.5945     361.6299   1418.76404     586.5945     361.6299
   1418.74878     585.7067     361.8506   1418.74878     585.7067     361.8506
   1418.73352     586.2320     362.1158   1418.73352     586.2320     362.1158
   1418.71826     587.6041     363.0098   1418.71826     587.6041     363.0098
   1418.70300     587.4451     362.5584   1418.70300     587.4451     362.5584
   1418.68774     587.9225     363.6603   1418.68774     587.9225     363.6603
   1418.67249     588.8896     364.4796   1418.67249     588.8896     364.4796
   1418.65723     588.5281     364.4809   1418.65723     588.5281     364.4809
   1418.64197     589.5283     365.4846   1418.64197     589.5283     365.4846
   1418.62671     589.6771     365.8994   1418.62671     589.6771     365.8994
   1418.61145     590.3569     366.6763   1418.61145     590.3569     366.6763
   1418.59619     590.6083     367.3195   1418.59619     590.6083     367.3195
   1418.58093     592.3801     367.9878   1418.58093     592.3801     367.9878
   1418.56567     592.0626     368.2635   1418.56567     592.0626     368.2635
   1418.55042     592.9069     369.5201   1418.55042     592.9069     369.5201
   1418.53516     593.4356     369.2427   1418.53516     593.4356     369.2427
   1418.51990     594.9611     370.6671   1418.51990     594.9611     370.6671
   1418.50464     593.9288     371.7527   1418.50464     593.9288     371.7527
   1418.48938     594.3584     371.4262   1418.48938     594.3584     371.4262
   1418.47412     596.4225     371.8210   1418.47412     596.4225     371.8210
   1418.45886     596.7415     373.2964   1418.45886     596.7415     373.2964
   1418.44360     596.7380     373.4431   1418.44360     596.7380     373.4431
   1418.42834     597.1455     374.8226   1418.42834     597.1455     374.8226
   1418.41309     597.8087     374.8560   1418.41309     597.8087     374.8560
   1418.39783     599.2902     375.9503   1418.39783     599.2902     375.9503
   1418.38257     599.4095     376.1706   1418.38257     599.4095     376.1706
   1418.36731     600.0659     377.4894   1418.36731     600.0659     377.4894
   1418.35205     600.6206     378.4044   1418.35205     600.6206     378.4044
   1418.33679     601.8654     378.3198   1418.33679     601.8654     378.3198
   1418.32153     602.8695     378.7019   1418.32153     602.8695     378.7019
   1418.30627     602.6421     380.1656   1418.30627     602.6421     380.1656
   1418.29102     603.7347     381.1070   1418.29102     603.7347     381.1070
   1418.27576     604.6603     381.5024   1418.27576     604.6603     381.5024
   1418.26050     604.7777     382.5356   1418.26050     604.7777     382.5356
   1418.24524     605.4200     382.6173   1418.24524     605.4200     382.6173
   1418.22998     605.8590     383.4546   1418.22998     605.8590     383.4546
   1418.21472     605.8619     384.5095   1418.21472     605.8619     384.5095
   1418.19946     606.4708     385.1664   1418.19946     606.4708     385.1664
   1418.18420     608.2047     386.2566   1418.18420     608.2047     386.2566
   1418.16895     608.4654     386.7944   1418.16895     608.4654     386.7944
   1418.15369     608.7877     387.5850   1418.15369     608.7877     387.5850
   1418.13843     611.1855     388.6219   1418.13843     611.1855     388.6219
   1418.12317     609.7368     389.1599   1418.12317     609.7368     389.1599
   1418.10791     611.9525     390.2904   1418.10791     611.9525     390.2904
   1418.09265     612.3871     391.0321   1418.09265     612.3871     391.0321
   1418.07739     613.6149     391.5306   1418.07739     613.6149     391.5306
   1418.06213     613.6192     392.1406   1418.06213     613.6192     392.1406
   1418.04688     614.2953     393.9173   1418.04688     614.2953     393.9173
   1418.03162     614.6910     394.8449   1418.03162     614.6910     394.8449
   1418.01636     615.8095     395.3811   1418.01636     615.8095     395.3811
   1418.00110     615.5680     395.5027   1418.00110     615.5680     395.5027
   1417.98584     617.9027     397.1476   1417.98584     617.9027     397.1476
   1417.97058     617.8444     397.5435   1417.97058     617.8444     397.5435
   1417.95532     618.6625     398.0266   1417.95532     618.6625     398.0266
   1417.94006     619.3904     398.4037   1417.94006     619.3904     398.4037
   1417.92480     619.8987     400.3742   1417.92480     619.8987     400.3742
   1417.90955     620.2203     401.1286   1417.90955     620.2203     401.1286
   1417.89429     620.6970     402.6364   1417.89429     620.6970     402.6364
   1417.87903     621.8555     402.6985   1417.87903     621.8555     402.6985
   1417.86377     623.2761     403.4401   1417.86377     623.2761     403.4401
   1417.84851     624.5596     405.0194   1417.84851     624.5596     405.0194
   1417.83325     624.5421     405.3047   1417.83325     624.5421     405.3047
   1417.81799     625.5235     406.4935   1417.81799     625.5235     406.4935
   1417.80273     626.1741     407.0916   1417.80273     626.1741     407.0916
   1417.78748     625.8295     408.2691   1417.78748     625.8295     408.2691
   1417.77222     627.5480     409.4782   1417.77222     627.5480     409.4782
   1417.75696     628.5582     409.8804   1417.75696     628.5582     409.8804
   1417.74170     628.2676     411.1110   1417.74170     628.2676     411.1110
   1417.72644     628.2443     411.9384   1417.72644     628.2443     411.9384
   1417.71118     630.0004     412.6807   1417.71118     630.0004     412.6807
   1417.69592     631.5701     413.6746   1417.69592     631.5701     413.6746
   1417.68066     631.4695     414.6205   1417.68066     631.4695     414.6205
   1417.66541     631.6076     415.4069   1417.66541     631.6076     415.4069
   1417.65015     632.5162     416.5087   1417.65015     632.5162     416.5087
   1417.63489     634.0963     417.2068   1417.63489     634.0963     417.2068
   1417.61963     634.4391     417.7253   1417.61963     634.4391     417.7253
   1417.60437     635.0919     419.1077   1417.60437     635.0919     419.1077
   1417.58911     635.6837     420.2697   1417.58911     635.6837     420.2697
   1417.57385     635.9340     420.2527   1417.57385     635.9340     420.2527
   1417.55859     637.3380     421.9011   1417.55859     637.3380     421.9011
   1417.54333     638.7295     422.9366   1417.54333     638.7295     422.9366
   1417.52808     638.3754     423.3970   1417.52808     638.3754     423.3970
   1417.51282     639.4005     424.4137   1417.51282     639.4005     424.4137
   1417.49756     639.9810     425.4402   1417.49756     639.9810     425.4402
   1417.48230     641.3110     426.6998   1417.48230     641.3110     426.6998
   1417.46704     641.6442     426.6195   1417.46704     641.6442     426.6195
   1417.45178     642.7200     428.3174   1417.45178     642.7200     428.3174
   1417.43652     643.1386     428.8621   1417.43652     643.1386     428.8621
   1417.42126     644.1793     430.9037   1417.42126     644.1793     430.9037
   1417.40601     643.8511     431.4913   1417.40601     643.8511     431.4913
   1417.39075     643.7791     431.7503   1417.39075     643.7791     431.7503
   1417.37549     645.8071     432.4346   1417.37549     645.8071     432.4346
   1417.36023     646.0898     434.2135   1417.36023     646.0898     434.2135
   1417.34497     646.0984     435.1122   1417.34497     646.0984     435.1122
   1417.32971     646.6943     436.0399   1417.32971     646.6943     436.0399
   1417.31445     647.6913     436.9174   1417.31445     647.6913     436.9174
   1417.29919     647.6524     438.1726   1417.29919     647.6524     438.1726
   1417.28394     649.5383     437.7054   1417.28394     649.5383     437.7054
   1417.26868     650.0399     439.6751   1417.26868     650.0399     439.6751
   1417.25342     649.5062     439.7500   1417.25342     649.5062     439.7500
   1417.23816     651.1073     441.4131   1417.23816     651.1073     441.4131
   1417.22290     651.0717     442.5860   1417.22290     651.0717     442.5860
   1417.20764     653.3895     443.3872   1417.20764     653.3895     443.3872
   1417.19238     652.1338     443.1292   1417.19238     652.1338     443.1292
   1417.17712     652.5291     443.6865   1417.17712     652.5291     443.6865
   1417.16187     653.3547     444.6955   1417.16187     653.3547     444.6955
   1417.14661     654.7489     446.6416   1417.14661     654.7489     446.6416
   1417.13135     654.4355     448.3452   1417.13135     654.4355     448.3452
   1417.11609     656.3242     447.7724   1417.11609     656.3242     447.7724
   1417.10083     654.8453     449.1175   1417.10083     654.8453     449.1175
   1417.08557     655.6208     449.4121   1417.08557     655.6208     449.4121
   1417.07031     656.8992     449.5811   1417.07031     656.8992     449.5811
   1417.05505     656.7515     450.3866   1417.05505     656.7515     450.3866
   1417.03979     658.1092     451.9061   1417.03979     658.1092     451.9061
   1417.02454     658.2650     452.5254   1417.02454     658.2650     452.5254
   1417.00928     658.5687     453.3341   1417.00928     658.5687     453.3341
   1416.99402     659.0446     453.6195   1416.99402     659.0446     453.6195
   1416.97876     659.2303     454.0246   1416.97876     659.2303     454.0246
   1416.96350     659.5311     455.4950   1416.96350     659.5311     455.4950
   1416.94824     659.6076     456.0439   1416.94824     659.6076     456.0439
   1416.93298     660.2258     456.4153   1416.93298     660.2258     456.4153
   1416.91772     659.4662     456.5611   1416.91772     659.4662     456.5611
   1416.90247     661.2472     457.5415   1416.90247     661.2472     457.5415
   1416.88721     660.6228     457.6904   1416.88721     660.6228     457.6904
   1416.87195     661.2286     458.2917   1416.87195     661.2286     458.2917
   1416.85669     662.9106     459.5256   1416.85669     662.9106     459.5256
   1416.84143     661.9070     460.4037   1416.84143     661.9070     460.4037
   1416.82617     662.2321     460.7066   1416.82617     662.2321     460.7066
   1416.81091     663.1198     461.1307   1416.81091     663.1198     461.1307
   1416.79565     663.1015     461.7685   1416.79565     663.1015     461.7685
   1416.78040     663.6718     461.7129   1416.78040     663.6718     461.7129
   1416.76514     662.6364     461.9225   1416.76514     662.6364     461.9225
   1416.74988     662.4833     462.9906   1416.74988     662.4833     462.9906
   1416.73462     663.3173     462.7763   1416.73462     663.3173     462.7763
   1416.71936     664.7031     463.2586   1416.71936     664.7031     463.2586
   1416.70410     664.2140     463.7428   1416.70410     664.2140     463.7428
   1416.68884     664.3103     464.1006   1416.68884     664.3103     464.1006
   1416.67358     663.4132     464.0661   1416.67358     663.4132     464.0661
   1416.65833     663.4686     464.7171   1416.65833     663.4686     464.7171
   1416.64307     663.3590     464.2437   1416.64307     663.3590     464.2437
   1416.62781     664.4312     465.4703   1416.62781     664.4312     465.4703
   1416.61255     665.8309     465.5664   1416.61255     665.8309     465.5664
   1416.59729     667.4261     465.8410   1416.59729     667.4261     465.8410
   1416.58203     664.5159     465.8118   1416.58203     664.5159     465.8118
   1416.56677     664.3184     466.3621   1416.56677     664.3184     466.3621
   1416.55151     664.4180     466.6306   1416.55151     664.4180     466.6306
   1416.53625     664.5898     466.6417   1416.53625     664.5898     466.6417
   1416.52100     664.5023     466.1539   1416.52100     664.5023     466.1539
   1416.50574     664.7393     466.8893   1416.50574     664.7393     466.8893
   1416.49048     664.3694     466.7561   1416.49048     664.3694     466.7561
   1416.47522     664.0341     465.7617   1416.47522     664.0341     465.7617
   1416.45996     664.0386     467.2209   1416.45996     664.0386     467.2209
   1416.44470     664.9372     466.4984   1416.44470     664.9372     466.4984
   1416.42944     663.8845     466.9797   1416.42944     663.8845     466.9797
   1416.41418     664.4816     466.1029   1416.41418     664.4816     466.1029
   1416.39893     663.3860     466.2047   1416.39893     663.3860     466.2047
   1416.38367     662.9119     466.9923   1416.38367     662.9119     466.9923
   1416.36841     664.4679     466.6932   1416.36841     664.4679     466.6932
   1416.35315     663.3971     467.0179   1416.35315     663.3971     467.0179
   1416.33789     661.5198     466.1008   1416.33789     661.5198     466.1008
   1416.32263     663.1085     465.9635   1416.32263     663.1085     465.9635
   1416.30737     662.4926     465.8478   1416.30737     662.4926     465.8478
   1416.29211     661.9745     465.8308   1416.29211     661.9745     465.8308
   1416.27686     662.5780     465.4713   1416.27686     662.5780     465.4713
   1416.26160     660.9722     465.0187   1416.26160     660.9722     465.0187
   1416.24634     661.4664     465.5441   1416.24634     661.4664     465.5441
   1416.23108     661.3188     464.9681   1416.23108     661.3188     464.9681
   1416.21582     663.8929     465.0016   1416.21582     663.8929     465.0016
   1416.20056     660.4392     464.3899   1416.20056     660.4392     464.3899
   1416.18530     660.3016     464.3532   1416.18530     660.3016     464.3532
   1416.17004     660.5266     463.8218   1416.17004     660.5266     463.8218
   1416.15479     659.0302     462.9720   1416.15479     659.0302     462.9720
   1416.13953     659.7746     463.5639   1416.13953     659.7746     463.5639
   1416.12427     659.4384     463.5338   1416.12427     659.4384     463.5338
   1416.10901     658.0137     462.9741   1416.10901     658.0137     462.9741
   1416.09375     657.8428     461.9082   1416.09375     657.8428     461.9082
   1416.07849     656.7213     461.8136   1416.07849     656.7213     461.8136
   1416.06323     658.4918     460.9109   1416.06323     658.4918     460.9109
   1416.04797     656.9077     460.8583   1416.04797     656.9077     460.8583
   1416.03271     657.5951     459.8803   1416.03271     657.5951     459.8803
   1416.01746     656.3737     460.7265   1416.01746     656.3737     460.7265
   1416.00220     655.9276     460.2554   1416.00220     655.9276     460.2554
   1415.98694     656.0038     459.5747   1415.98694     656.0038     459.5747
   1415.97168     654.8330     458.8117   1415.97168     654.8330     458.8117
   1415.95642     654.6375     458.1835   1415.95642     654.6375     458.1835
   1415.94116     654.0049     457.9955   1415.94116     654.0049     457.9955
   1415.92590     653.0694     457.3172   1415.92590     653.0694     457.3172
   1415.91064     653.3631     457.9401   1415.91064     653.3631     457.9401
   1415.89539     651.7049     455.6900   1415.89539     651.7049     455.6900
   1415.88013     653.2383     456.1136   1415.88013     653.2383     456.1136
   1415.86487     650.6584     455.4944   1415.86487     650.6584     455.4944
   1415.84961     651.2929     454.8079   1415.84961     651.2929     454.8079
   1415.83435     652.3629     455.1661   1415.83435     652.3629     455.1661
   1415.81909     648.8563     454.4788   1415.81909     648.8563     454.4788
   1415.80383     648.8432     453.1965   1415.80383     648.8432     453.1965
   1415.78857     647.4880     453.2558   1415.78857     647.4880     453.2558
   1415.77332     647.6925     452.2827   1415.77332     647.6925     452.2827
   1415.75806     647.9025     451.6143   1415.75806     647.9025     451.6143
   1415.74280     647.6443     451.6607   1415.74280     647.6443     451.6607
   1415.72754     646.6158     451.2549   1415.72754     646.6158     451.2549
   1415.71228     645.9716     449.8973   1415.71228     645.9716     449.8973
   1415.69702     645.7339     449.1334   1415.69702     645.7339     449.1334
   1415.68176     644.1817     449.3860   1415.68176     644.1817     449.3860
   1415.66650     643.8118     448.0509   1415.66650     643.8118     448.0509
   1415.65125     643.9079     448.3310   1415.65125     643.9079     448.3310
   1415.63599     642.8900     447.7999   1415.63599     642.8900     447.7999
   1415.62073     641.4794     445.4074   1415.62073     641.4794     445.4074
   1415.60547     641.0344     445.2655   1415.60547     641.0344     445.2655
   1415.59021     640.6306     445.5625   1415.59021     640.6306     445.5625
   1415.57495     640.7797     444.3959   1415.57495     640.7797     444.3959
   1415.55969     638.5348     443.7439   1415.55969     638.5348     443.7439
   1415.54443     637.8608     443.6883   1415.54443     637.8608     443.6883
   1415.52917     636.7373     442.4915   1415.52917     636.7373     442.4915
   1415.51392     637.3616     442.0511   1415.51392     637.3616     442.0511
   1415.49866     635.5718     440.6655   1415.49866     635.5718     440.6655
   1415.48340     633.9384     440.5511   1415.48340     633.9384     440.5511
   1415.46814     633.9046     439.9084   1415.46814     633.9046     439.9084
   1415.45288     635.8236     439.4651   1415.45288     635.8236     439.4651
   1415.43762     632.7224     437.8900   1415.43762     632.7224     437.8900
   1415.42236     631.7624     437.5513   1415.42236     631.7624     437.5513
   1415.40710     630.1944     436.9213   1415.40710     630.1944     436.9213
   1415.39185     630.8121     436.1542   1415.39185     630.8121     436.1542
   1415.37659     629.4335     435.2880   1415.37659     629.4335     435.2880
   1415.36133     628.1207     434.6501   1415.36133     628.1207     434.6501
   1415.34607     627.8884     434.5259   1415.34607     627.8884     434.5259
   1415.33081     626.0639     432.8254   1415.33081     626.0639     432.8254
   1415.31555     625.5154     432.6030   1415.31555     625.5154     432.6030
   1415.30029     624.3022     431.0805   1415.30029     624.3022     431.0805
   1415.28503     622.2753     430.9034   1415.28503     622.2753     430.9034
   1415.26978     623.0946     430.1911   1415.26978     623.0946     430.1911
   1415.25452     620.3810     428.5417   1415.25452     620.3810     428.5417
   1415.23926     620.4019     428.4054   1415.23926     620.4019     428.4054
   1415.22400     620.1089     427.9215   1415.22400     620.1089     427.9215
   1415.20874     617.4757     427.0546   1415.20874     617.4757     427.0546
   1415.19348     617.7116     426.1743   1415.19348     617.7116     426.1743
   1415.17822     614.8827     426.1154   1415.17822     614.8827     426.1154
   1415.16296     614.7766     424.5474   1415.16296     614.7766     424.5474
   1415.14771     615.4626     423.6458   1415.14771     615.4626     423.6458
   1415.13245     612.3156     423.1736   1415.13245     612.3156     423.1736
   1415.11719     611.5137     421.8659   1415.11719     611.5137     421.8659
   1415.10193     609.7527     421.5355   1415.10193     609.7527     421.5355
   1415.08667     609.5588     419.8907   1415.08667     609.5588     419.8907
   1415.07141     608.6326     419.9775   1415.07141     608.6326     419.9775
   1415.05615     607.0629     419.1550   1415.05615     607.0629     419.1550
   1415.04089     604.9580     417.9211   1415.04089     604.9580     417.9211
   1415.02563     604.2426     417.0721   1415.02563     604.2426     417.0721
   1415.01038     602.8322     415.1330   1415.01038     602.8322     415.1330
   1414.99512     601.3743     414.6480   1414.99512     601.3743     414.6480
   1414.97986     601.2531     414.2797   1414.97986     601.2531     414.2797
   1414.96460     599.9788     413.0924   1414.96460     599.9788     413.0924
   1414.94934     598.0315     411.9958   1414.94934     598.0315     411.9958
   1414.93408     596.3034     411.2690   1414.93408     596.3034     411.2690
   1414.91882     595.5752     409.9854   1414.91882     595.5752     409.9854
   1414.90356     594.5874     409.1509   1414.90356     594.5874     409.1509
   1414.88831     592.4028     408.5213   1414.88831     592.4028     408.5213
   1414.87305     591.1671     407.7959   1414.87305     591.1671     407.7959
   1414.85779     590.2561     406.7337   1414.85779     590.2561     406.7337
   1414.84253     589.0273     405.6477   1414.84253     589.0273     405.6477
   1414.82727     586.6123     404.4684   1414.82727     586.6123     404.4684
   1414.81201     584.4561     403.2961   1414.81201     584.4561     403.2961
   1414.79675     584.4463     401.9981   1414.79675     584.4463     401.9981
   1414.78149     582.8251     401.2849   1414.78149     582.8251     401.2849
   1414.76624     581.2120     400.7914   1414.76624     581.2120     400.7914
   1414.75098     580.1329     399.6336   1414.75098     580.1329     399.6336
   1414.73572     578.3039     398.6013   1414.73572     578.3039     398.6013
   1414.72046     575.9966     396.7059   1414.72046     575.9966     396.7059
   1414.70520     573.7601     395.8361   1414.70520     573.7601     395.8361
   1414.68994     574.5419     394.9904   1414.68994     574.5419     394.9904
   1414.67468     571.7288     394.5482   1414.67468     571.7288     394.5482
   1414.65942     570.4854     392.9592   1414.65942     570.4854     392.9592
   1414.64417     569.0170     391.8597   1414.64417     569.0170     391.8597
   1414.62891     566.9374     390.9770   1414.62891     566.9374     390.9770
   1414.61365     563.9544     389.4327   1414.61365     563.9544     389.4327
   1414.59839     562.8945     388.5704   1414.59839     562.8945     388.5704
   1414.58313     561.1393     386.9838   1414.58313     561.1393     386.9838
   1414.56787     559.7023     386.3552   1414.56787     559.7023     386.3552
   1414.55261     558.6025     385.5714   1414.55261     558.6025     385.5714
   1414.53735     556.8572     383.9464   1414.53735     556.8572     383.9464
   1414.52209     554.9622     382.8903   1414.52209     554.9622     382.8903
   1414.50684     553.8157     381.4738   1414.50684     553.8157     381.4738
   1414.49158     550.7928     380.2753   1414.49158     550.7928     380.2753
   1414.47632     548.2454     378.9724   1414.47632     548.2454     378.9724
   1414.46106     547.3908     377.7719   1414.46106     547.3908     377.7719
   1414.44580     545.5345     376.7727   1414.44580     545.5345     376.7727
   1414.43054     543.3286     375.9455   1414.43054     543.3286     375.9455
   1414.41528     540.7154     374.3338   1414.41528     540.7154     374.3338
   1414.40002     539.8995     372.5860   1414.40002     539.8995     372.5860
   1414.38477     537.8948     371.9631   1414.38477     537.8948     371.9631
   1414.36951     535.0969     370.4536   1414.36951     535.0969     370.4536
   1414.35425     534.2776     368.7920   1414.35425     534.2776     368.7920
   1414.33899     530.4869     367.9431   1414.33899     530.4869     367.9431
   1414.32373     528.5761     366.2107   1414.32373     528.5761     366.2107
   1414.30847     527.7657     365.1847   1414.30847     527.7657     365.1847
   1414.29321     525.4275     364.1809   1414.29321     525.4275     364.1809
   1414.27795     522.4547     362.6062   1414.27795     522.4547     362.6062
   1414.26270     521.0156     360.9211   1414.26270     521.0156     360.9211
   1414.24744     518.8641     359.9968   1414.24744     518.8641     359.9968
   1414.23218     517.2932     358.6671   1414.23218     517.2932     358.6671
   1414.21692     514.5205     357.5910   1414.21692     514.5205     357.5910
   1414.20166     513.0334     355.8781   1414.20166     513.0334     355.8781
   1414.18640     510.5543     355.4846   1414.18640     510.5543     355.4846
   1414.17114     508.8358     353.5284   1414.17114     508.8358     353.5284
   1414.15588     506.8698     352.8688   1414.15588     506.8698     352.8688
   1414.14062     503.6642     350.4182   1414.14062     503.6642     350.4182
   1414.12537     501.9991     349.1220   1414.12537     501.9991     349.1220
   1414.11011     499.8992     348.2059   1414.11011     499.8992     348.2059
   1414.09485     497.8441     346.2756   1414.09485     497.8441     346.2756
   1414.07959     495.3213     344.9587   1414.07959     495.3213     344.9587
   1414.06433     492.8451     343.5640   1414.06433     492.8451     343.5640
   1414.04907     490.7516     341.9328   1414.04907     490.7516     341.9328
   1414.03381     489.6227     340.8472   1414.03381     489.6227     340.8472
   1414.01855     487.4903     338.9940   1414.01855     487.4903     338.9940
   1414.00330     513.3363     347.1470   1414.00330     513.3363     347.1470
   1413.98804     483.6110     337.3961   1413.98804     483.6110     337.3961
   1413.97278     479.8058     335.6259   1413.97278     479.8058     335.6259
   1413.95752     477.9703     333.5181   1413.95752     477.9703     333.5181
   1413.94226     475.0471     332.6251   1413.94226     475.0471     332.6251
   1413.92700     472.7596     330.7697   1413.92700     472.7596     330.7697
   1413.91174     470.5421     329.3598   1413.91174     470.5421     329.3598
   1413.89648     467.8441     327.7339   1413.89648     467.8441     327.7339
   1413.88123     465.8401     326.2794   1413.88123     465.8401     326.2794
   1413.86597     463.2104     325.3717   1413.86597     463.2104     325.3717
   1413.85071     461.1114     323.4377   1413.85071     461.1114     323.4377
   1413.83545     458.3367     322.0435   1413.83545     458.3367     322.0435
   1413.82019     456.0748     320.8501   1413.82019     456.0748     320.8501
   1413.80493     453.9222     319.0726   1413.80493     453.9222     319.0726
   1413.78967     451.4545     318.0444   1413.78967     451.4545     318.0444
   1413.77441     449.3347     316.4113   1413.77441     449.3347     316.4113
   1413.75916     447.4608     314.4595   1413.75916     447.4608     314.4595
   1413.74390     445.0641     313.4350   1413.74390     445.0641     313.4350
   1413.72864     442.4192     311.6793   1413.72864     442.4192     311.6793
   1413.71338     440.4010     310.7782   1413.71338     440.4010     310.7782
   1413.69812     437.0184     309.0710   1413.69812     437.0184     309.0710
   1413.68286     435.2178     307.5533   1413.68286     435.2178     307.5533
   1413.66760     432.5868     306.5746   1413.66760     432.5868     306.5746
   1413.65234     430.0904     304.8274   1413.65234     430.0904     304.8274
   1413.63708     427.8560     303.6449   1413.63708     427.8560     303.6449
   1413.62183     426.3588     301.7315   1413.62183     426.3588     301.7315
   1413.60657     423.7143     300.4099   1413.60657     423.7143     300.4099
   1413.59131     420.8075     299.1646   1413.59131     420.8075     299.1646
   1413.57605     417.9297     297.6323   1413.57605     417.9297     297.6323
   1413.56079     416.3728     296.3992   1413.56079     416.3728     296.3992
   1413.54553     414.3050     295.1522   1413.54553     414.3050     295.1522
   1413.53027     411.7743     293.4705   1413.53027     411.7743     293.4705
   1413.51501     409.2716     292.1960   1413.51501     409.2716     292.1960
   1413.49976     407.4740     291.0556   1413.49976     407.4740     291.0556
   1413.48450     404.4756     289.3516   1413.48450     404.4756     289.3516
   1413.46924     402.2353     287.8250   1413.46924     402.2353     287.8250
   1413.45398     400.2464     285.8846   1413.45398     400.2464     285.8846
   1413.43872     397.8584     284.7733   1413.43872     397.8584     284.7733
   1413.42346     395.2169     283.5190   1413.42346     395.2169     283.5190
   1413.40820     393.8421     282.2138   1413.40820     393.8421     282.2138
   1413.39294     391.1962     281.1546   1413.39294     391.1962     281.1546
   1413.37769     388.8943     279.8230   1413.37769     388.8943     279.8230
   1413.36243     386.7169     278.8733   1413.36243     386.7169     278.8733
   1413.34717     385.0519     277.0653   1413.34717     385.0519     277.0653
   1413.33191     382.4243     275.7125   1413.33191     382.4243     275.7125
   1413.31665     380.2451     274.3955   1413.31665     380.2451     274.3955
   1413.30139     378.3393     273.2747   1413.30139     378.3393     273.2747
   1413.28613     375.7766     271.6407   1413.28613     375.7766     271.6407
   1413.27087     373.3943     270.5390   1413.27087     373.3943     270.5390
   1413.25562     371.9506     268.9531   1413.25562     371.9506     268.9531
   1413.24036     369.0639     268.3016   1413.24036     369.0639     268.3016
   1413.22510     367.7750     267.3845   1413.22510     367.7750     267.3845
   1413.20984     366.0381     265.7233   1413.20984     366.0381     265.7233
   1413.19458     363.4603     264.7674   1413.19458     363.4603     264.7674
   1413.17932     361.0317     263.6837   1413.17932     361.0317     263.6837
   1413.16406     359.4492     262.3241   1413.16406     359.4492     262.3241
   1413.14880     357.2639     261.1762   1413.14880     357.2639     261.1762
   1413.13354     356.0103     259.9509   1413.13354     356.0103     259.9509
   1413.11829     353.7200     259.4714   1413.11829     353.7200     259.4714
   1413.10303     352.0162     258.2022   1413.10303     352.0162     258.2022
   1413.08777     349.7577     256.8952   1413.08777     349.7577     256.8952
   1413.07251     348.3622     255.9739   1413.07251     348.3622     255.9739
   1413.05725     346.3063     254.9309   1413.05725     346.3063     254.9309
   1413.04199     344.6761     254.1144   1413.04199     344.6761     254.1144
   1413.02673     342.4824     252.9216   1413.02673     342.4824     252.9216
   1413.01147     341.0528     252.1320   1413.01147     341.0528     252.1320
   1412.99622     339.0877     251.2095   1412.99622     339.0877     251.2095
   1412.98096     337.3542     250.8515   1412.98096     337.3542     250.8515
   1412.96570     336.7460     249.0471   1412.96570     336.7460     249.0471
   1412.95044     334.2937     248.5891   1412.95044     334.2937     248.5891
   1412.93518     332.6960     247.8650   1412.93518     332.6960     247.8650
   1412.91992     330.9252     246.9436   1412.91992     330.9252     246.9436
   1412.90466     330.0776     246.3306   1412.90466     330.0776     246.3306
   1412.88940     328.4860     245.1958   1412.88940     328.4860     245.1958
   1412.87415     326.9751     244.6017   1412.87415     326.9751     244.6017
   1412.85889     325.4123     243.9452   1412.85889     325.4123     243.9452
   1412.84363     324.5691     243.1019   1412.84363     324.5691     243.1019
   1412.82837     323.0507     242.7740   1412.82837     323.0507     242.7740
   1412.81311     321.7946     242.1841   1412.81311     321.7946     242.1841
   1412.79785     320.1985     241.5001   1412.79785     320.1985     241.5001
   1412.78259     319.1511     240.8318   1412.78259     319.1511     240.8318
   1412.76733     318.3343     240.4195   1412.76733     318.3343     240.4195
   1412.75208     316.6579     239.7265   1412.75208     316.6579     239.7265
   1412.73682     315.6147     239.2000   1412.73682     315.6147     239.2000
   1412.72156     314.2399     238.8069   1412.72156     314.2399     238.8069
   1412.70630     313.0942     238.7046   1412.70630     313.0942     238.7046
   1412.69104     312.4974     237.9798   1412.69104     312.4974     237.9798
   1412.67578     311.3042     237.5585   1412.67578     311.3042     237.5585
   1412.66052     310.1594     237.4856   1412.66052     310.1594     237.4856
   1412.64526     309.8564     236.8740   1412.64526     309.8564     236.8740
   1412.63000     309.1663     236.5739   1412.63000     309.1663     236.5739
   1412.61475     307.9828     236.5429   1412.61475     307.9828     236.5429
   1412.59949     306.6697     236.3158   1412.59949     306.6697     236.3158
   1412.58423     306.0000     235.8888   1412.58423     306.0000     235.8888
   1412.56897     305.5297     235.9981   1412.56897     305.5297     235.9981
   1412.55371     305.1447     235.9987   1412.55371     305.1447     235.9987
   1412.53845     304.5285     235.6285   1412.53845     304.5285     235.6285
   1412.52319     304.1783     236.0539   1412.52319     304.1783     236.0539
   1412.50793     303.8181     235.5343   1412.50793     303.8181     235.5343
   1412.49268     302.9806     235.6018   1412.49268     302.9806     235.6018
   1412.47742     302.8746     235.5285   1412.47742     302.8746     235.5285
   1412.46216     302.4895     235.6049   1412.46216     302.4895     235.6049
   1412.44690     301.9266     235.9763   1412.44690     301.9266     235.9763
   1412.43164     301.3705     235.8939   1412.43164     301.3705     235.8939
   1412.41638     301.2629     236.2531   1412.41638     301.2629     236.2531
   1412.40112     301.2020     236.4287   1412.40112     301.2020     236.4287
   1412.38586     301.1554     237.0579   1412.38586     301.1554     237.0579
   1412.37061     300.9938     236.7872   1412.37061     300.9938     236.7872
   1412.35535     300.9495     237.2484   1412.35535     300.9495     237.2484
   1412.34009     300.5225     237.2924   1412.34009     300.5225     237.2924
   1412.32483     300.4606     238.0492   1412.32483     300.4606     238.0492
   1412.30957     301.1741     238.9162   1412.30957     301.1741     238.9162
   1412.29431     301.0684     239.0154   1412.29431     301.0684     239.0154
   1412.27905     301.4734     239.5826   1412.27905     301.4734     239.5826
   1412.26379     301.1915     240.2456   1412.26379     301.1915     240.2456
   1412.24854     302.0860     240.6276   1412.24854     302.0860     240.6276
   1412.23328     302.4024     241.1697   1412.23328     302.4024     241.1697
   1412.21802     302.0880     241.9593   1412.21802     302.0880     241.9593
   1412.20276     302.7860     242.5285   1412.20276     302.7860     242.5285