#     FILENAME=!Skynet_57528_lach-hhg-103_20355_20910.cyb.fits
#     BASENAME=Skynet_57528_lach-hhg-103_20355_20910
#     SRC_NAME=lach-hhg-103
#     OBSERVER=hhgmadison16_9500
#     DATE_OBS=2016-05-20T15:29:31.500
#        OBSID=20355
#      SCANNUM=20910
#          MJD=57528.6465
#          UTC=55860
#     SCANTYPE=track
#     DATAMODE=HIRES
#     TUNEFREQ=1420.0000
# Actual_FREQ1=1420.0000
# Actual_FREQ2=1420.0000
#    LO1Tuning=6870.000
#     RFFILTER=1355_1435
#        OBSBW=-15.6250
#        NCHAN=1024 
#        FOCUS=37.0709
#           RA=22:17:37.70
#          DEC=56:47:27.70
#      RA(hrs)=22.293800
#     DEC(deg)=56.791000
#    AZIM(deg)=315.248
#    ELEV(deg)=48.955
#     IFattens=10.00, 9.00
#      WARNING=None
#    TCAL_XL1=7.9635
#    TCAL_YR1=9.1340
#    TCAL_XL2=7.9635
#    TCAL_YR2=9.1340
#     TRX_XL1=11.7060
#     TRX_YR1=11.7060
#     TRX_XL2=11.7060
#     TRX_YR2=11.7060
#        TAVE=1.0000
#Freq1(MHz)          XL1          YR1  Freq2(MHz)          XL2          YR2 

   1427.81250     377.7977     287.3369   1427.81250     377.7977     287.3369
   1427.79724     378.2279     287.8591   1427.79724     378.2279     287.8591
   1427.78198     379.4993     288.7111   1427.78198     379.4993     288.7111
   1427.76672     379.6568     289.6862   1427.76672     379.6568     289.6862
   1427.75146     380.7224     290.3702   1427.75146     380.7224     290.3702
   1427.73621     381.7119     291.5517   1427.73621     381.7119     291.5517
   1427.72095     383.1340     291.7604   1427.72095     383.1340     291.7604
   1427.70569     383.1579     293.5994   1427.70569     383.1579     293.5994
   1427.69043     385.2210     294.6013   1427.69043     385.2210     294.6013
   1427.67517     385.5910     295.1330   1427.67517     385.5910     295.1330
   1427.65991     387.7625     296.1478   1427.65991     387.7625     296.1478
   1427.64465     388.1787     297.5490   1427.64465     388.1787     297.5490
   1427.62939     390.0330     298.6250   1427.62939     390.0330     298.6250
   1427.61414     390.7166     300.0211   1427.61414     390.7166     300.0211
   1427.59888     391.7627     301.4108   1427.59888     391.7627     301.4108
   1427.58362     393.6485     302.6293   1427.58362     393.6485     302.6293
   1427.56836     394.7168     303.6205   1427.56836     394.7168     303.6205
   1427.55310     396.9532     305.0622   1427.55310     396.9532     305.0622
   1427.53784     398.4955     306.5040   1427.53784     398.4955     306.5040
   1427.52258     400.2467     308.1449   1427.52258     400.2467     308.1449
   1427.50732     402.5067     309.1974   1427.50732     402.5067     309.1974
   1427.49207     404.1405     310.6639   1427.49207     404.1405     310.6639
   1427.47681     405.7732     312.0693   1427.47681     405.7732     312.0693
   1427.46155     407.8107     314.7325   1427.46155     407.8107     314.7325
   1427.44629     408.8263     314.9095   1427.44629     408.8263     314.9095
   1427.43103     411.2947     316.4423   1427.43103     411.2947     316.4423
   1427.41577     413.4622     318.5430   1427.41577     413.4622     318.5430
   1427.40051     414.6036     319.9506   1427.40051     414.6036     319.9506
   1427.38525     416.6579     320.9327   1427.38525     416.6579     320.9327
   1427.37000     419.7138     322.6601   1427.37000     419.7138     322.6601
   1427.35474     421.9489     324.9754   1427.35474     421.9489     324.9754
   1427.33948     423.9593     326.4148   1427.33948     423.9593     326.4148
   1427.32422     426.1229     328.1865   1427.32422     426.1229     328.1865
   1427.30896     428.7194     330.0982   1427.30896     428.7194     330.0982
   1427.29370     430.6989     332.4287   1427.29370     430.6989     332.4287
   1427.27844     432.8360     333.8405   1427.27844     432.8360     333.8405
   1427.26318     435.5394     335.9859   1427.26318     435.5394     335.9859
   1427.24792     438.0034     338.1958   1427.24792     438.0034     338.1958
   1427.23267     440.7325     339.7526   1427.23267     440.7325     339.7526
   1427.21741     442.2932     341.0816   1427.21741     442.2932     341.0816
   1427.20215     444.6936     342.8420   1427.20215     444.6936     342.8420
   1427.18689     447.8272     345.3345   1427.18689     447.8272     345.3345
   1427.17163     449.7598     347.7122   1427.17163     449.7598     347.7122
   1427.15637     453.0165     349.5587   1427.15637     453.0165     349.5587
   1427.14111     455.7273     351.0729   1427.14111     455.7273     351.0729
   1427.12585     458.3105     353.8521   1427.12585     458.3105     353.8521
   1427.11060     460.5773     355.8779   1427.11060     460.5773     355.8779
   1427.09534     463.8784     357.4414   1427.09534     463.8784     357.4414
   1427.08008     467.0175     359.7110   1427.08008     467.0175     359.7110
   1427.06482     469.2505     362.4137   1427.06482     469.2505     362.4137
   1427.04956     472.3480     363.8721   1427.04956     472.3480     363.8721
   1427.03430     475.4659     365.9591   1427.03430     475.4659     365.9591
   1427.01904     477.7650     368.2057   1427.01904     477.7650     368.2057
   1427.00378     481.1523     370.6550   1427.00378     481.1523     370.6550
   1426.98853     483.5208     372.8011   1426.98853     483.5208     372.8011
   1426.97327     486.2408     374.4641   1426.97327     486.2408     374.4641
   1426.95801     489.2596     377.0586   1426.95801     489.2596     377.0586
   1426.94275     492.4933     379.2378   1426.94275     492.4933     379.2378
   1426.92749     495.9479     381.2477   1426.92749     495.9479     381.2477
   1426.91223     498.8994     383.5621   1426.91223     498.8994     383.5621
   1426.89697     501.2069     385.2231   1426.89697     501.2069     385.2231
   1426.88171     504.6589     387.5565   1426.88171     504.6589     387.5565
   1426.86646     506.9178     390.4020   1426.86646     506.9178     390.4020
   1426.85120     509.9436     392.0977   1426.85120     509.9436     392.0977
   1426.83594     513.1351     394.9925   1426.83594     513.1351     394.9925
   1426.82068     516.0764     397.0369   1426.82068     516.0764     397.0369
   1426.80542     519.6813     399.0742   1426.80542     519.6813     399.0742
   1426.79016     523.0558     400.4697   1426.79016     523.0558     400.4697
   1426.77490     525.8141     403.1680   1426.77490     525.8141     403.1680
   1426.75964     527.9200     405.7362   1426.75964     527.9200     405.7362
   1426.74438     531.3441     407.5250   1426.74438     531.3441     407.5250
   1426.72913     534.4550     410.0210   1426.72913     534.4550     410.0210
   1426.71387     537.3991     412.1392   1426.71387     537.3991     412.1392
   1426.69861     539.8262     414.7487   1426.69861     539.8262     414.7487
   1426.68335     542.6334     416.8772   1426.68335     542.6334     416.8772
   1426.66809     547.4781     418.9273   1426.66809     547.4781     418.9273
   1426.65283     550.5654     421.4537   1426.65283     550.5654     421.4537
   1426.63757     552.8607     423.9181   1426.63757     552.8607     423.9181
   1426.62231     557.8488     426.0301   1426.62231     557.8488     426.0301
   1426.60706     560.0810     428.3976   1426.60706     560.0810     428.3976
   1426.59180     562.7654     431.0059   1426.59180     562.7654     431.0059
   1426.57654     566.0722     432.1299   1426.57654     566.0722     432.1299
   1426.56128     568.5114     434.7139   1426.56128     568.5114     434.7139
   1426.54602     570.6953     436.7883   1426.54602     570.6953     436.7883
   1426.53076     574.5097     439.2014   1426.53076     574.5097     439.2014
   1426.51550     577.9205     441.7244   1426.51550     577.9205     441.7244
   1426.50024     580.7958     444.1526   1426.50024     580.7958     444.1526
   1426.48499     583.2374     445.8737   1426.48499     583.2374     445.8737
   1426.46973     586.4676     447.6260   1426.46973     586.4676     447.6260
   1426.45447     589.3963     450.1994   1426.45447     589.3963     450.1994
   1426.43921     591.2791     452.4128   1426.43921     591.2791     452.4128
   1426.42395     595.1716     455.2923   1426.42395     595.1716     455.2923
   1426.40869     597.9903     456.4334   1426.40869     597.9903     456.4334
   1426.39343     600.7748     458.6570   1426.39343     600.7748     458.6570
   1426.37817     603.8091     460.7976   1426.37817     603.8091     460.7976
   1426.36292     606.3126     463.0175   1426.36292     606.3126     463.0175
   1426.34766     609.8605     464.9688   1426.34766     609.8605     464.9688
   1426.33240     611.9147     467.3415   1426.33240     611.9147     467.3415
   1426.31714     615.2835     469.4381   1426.31714     615.2835     469.4381
   1426.30188     617.5732     472.0169   1426.30188     617.5732     472.0169
   1426.28662     620.8917     473.6859   1426.28662     620.8917     473.6859
   1426.27136     623.0202     475.6337   1426.27136     623.0202     475.6337
   1426.25610     626.3696     477.7868   1426.25610     626.3696     477.7868
   1426.24084     629.6786     479.0484   1426.24084     629.6786     479.0484
   1426.22559     632.8295     481.4812   1426.22559     632.8295     481.4812
   1426.21033     635.0886     484.1857   1426.21033     635.0886     484.1857
   1426.19507     637.0452     485.5753   1426.19507     637.0452     485.5753
   1426.17981     640.1319     487.2686   1426.17981     640.1319     487.2686
   1426.16455     642.0477     489.3700   1426.16455     642.0477     489.3700
   1426.14929     645.7313     490.9573   1426.14929     645.7313     490.9573
   1426.13403     647.8781     493.7744   1426.13403     647.8781     493.7744
   1426.11877     649.0381     494.6090   1426.11877     649.0381     494.6090
   1426.10352     652.5232     497.3022   1426.10352     652.5232     497.3022
   1426.08826     655.1655     498.6204   1426.08826     655.1655     498.6204
   1426.07300     657.1309     500.5044   1426.07300     657.1309     500.5044
   1426.05774     659.3065     502.2571   1426.05774     659.3065     502.2571
   1426.04248     662.4283     504.2022   1426.04248     662.4283     504.2022
   1426.02722     663.4470     506.7664   1426.02722     663.4470     506.7664
   1426.01196     667.3094     507.7111   1426.01196     667.3094     507.7111
   1425.99670     669.6013     509.8473   1425.99670     669.6013     509.8473
   1425.98145     670.9975     511.8090   1425.98145     670.9975     511.8090
   1425.96619     674.1644     513.1761   1425.96619     674.1644     513.1761
   1425.95093     675.0592     514.3039   1425.95093     675.0592     514.3039
   1425.93567     676.9749     515.8007   1425.93567     676.9749     515.8007
   1425.92041     679.6779     518.8467   1425.92041     679.6779     518.8467
   1425.90515     683.2980     520.6157   1425.90515     683.2980     520.6157
   1425.88989     684.0583     521.9716   1425.88989     684.0583     521.9716
   1425.87463     686.5824     524.1200   1425.87463     686.5824     524.1200
   1425.85938     688.5945     524.3418   1425.85938     688.5945     524.3418
   1425.84412     689.7305     526.6204   1425.84412     689.7305     526.6204
   1425.82886     691.8965     528.2071   1425.82886     691.8965     528.2071
   1425.81360     693.2747     530.3180   1425.81360     693.2747     530.3180
   1425.79834     695.9279     531.5189   1425.79834     695.9279     531.5189
   1425.78308     697.6019     534.0192   1425.78308     697.6019     534.0192
   1425.76782     699.4323     535.0927   1425.76782     699.4323     535.0927
   1425.75256     701.4877     536.6578   1425.75256     701.4877     536.6578
   1425.73730     702.1931     537.5172   1425.73730     702.1931     537.5172
   1425.72205     704.4886     540.0169   1425.72205     704.4886     540.0169
   1425.70679     706.5674     541.6978   1425.70679     706.5674     541.6978
   1425.69153     708.6409     542.2009   1425.69153     708.6409     542.2009
   1425.67627     709.7977     545.1768   1425.67627     709.7977     545.1768
   1425.66101     712.1161     545.1077   1425.66101     712.1161     545.1077
   1425.64575     714.1117     546.9595   1425.64575     714.1117     546.9595
   1425.63049     714.1002     548.9810   1425.63049     714.1002     548.9810
   1425.61523     715.7017     549.7342   1425.61523     715.7017     549.7342
   1425.59998     716.3294     551.8612   1425.59998     716.3294     551.8612
   1425.58472     718.9438     553.2026   1425.58472     718.9438     553.2026
   1425.56946     719.6381     553.8401   1425.56946     719.6381     553.8401
   1425.55420     721.7259     555.9067   1425.55420     721.7259     555.9067
   1425.53894     722.4664     557.2733   1425.53894     722.4664     557.2733
   1425.52368     723.9323     558.7718   1425.52368     723.9323     558.7718
   1425.50842     725.5906     558.7178   1425.50842     725.5906     558.7178
   1425.49316     727.1870     559.8278   1425.49316     727.1870     559.8278
   1425.47791     726.7930     562.2593   1425.47791     726.7930     562.2593
   1425.46265     728.4666     563.6097   1425.46265     728.4666     563.6097
   1425.44739     730.4677     565.0746   1425.44739     730.4677     565.0746
   1425.43213     731.1501     566.2017   1425.43213     731.1501     566.2017
   1425.41687     732.7525     567.8073   1425.41687     732.7525     567.8073
   1425.40161     732.8824     568.2719   1425.40161     732.8824     568.2719
   1425.38635     735.0864     570.4102   1425.38635     735.0864     570.4102
   1425.37109     735.2714     570.9771   1425.37109     735.2714     570.9771
   1425.35583     735.5919     572.4310   1425.35583     735.5919     572.4310
   1425.34058     736.7766     572.4174   1425.34058     736.7766     572.4174
   1425.32532     738.6970     574.2556   1425.32532     738.6970     574.2556
   1425.31006     738.8394     575.4453   1425.31006     738.8394     575.4453
   1425.29480     739.5967     576.6915   1425.29480     739.5967     576.6915
   1425.27954     741.3354     577.7883   1425.27954     741.3354     577.7883
   1425.26428     741.8826     579.0579   1425.26428     741.8826     579.0579
   1425.24902     742.3585     579.9042   1425.24902     742.3585     579.9042
   1425.23376     742.9920     579.2281   1425.23376     742.9920     579.2281
   1425.21851     744.5206     582.2672   1425.21851     744.5206     582.2672
   1425.20325     744.5199     583.1920   1425.20325     744.5199     583.1920
   1425.18799     746.8512     584.2175   1425.18799     746.8512     584.2175
   1425.17273     746.0901     584.5196   1425.17273     746.0901     584.5196
   1425.15747     746.7105     587.0132   1425.15747     746.7105     587.0132
   1425.14221     747.0635     588.0284   1425.14221     747.0635     588.0284
   1425.12695     748.3300     587.9390   1425.12695     748.3300     587.9390
   1425.11169     748.3133     589.9410   1425.11169     748.3133     589.9410
   1425.09644     749.5776     591.2672   1425.09644     749.5776     591.2672
   1425.08118     749.2803     591.7850   1425.08118     749.2803     591.7850
   1425.06592     748.4513     593.4183   1425.06592     748.4513     593.4183
   1425.05066     749.7089     594.0221   1425.05066     749.7089     594.0221
   1425.03540     750.2191     593.8483   1425.03540     750.2191     593.8483
   1425.02014     750.6006     595.0157   1425.02014     750.6006     595.0157
   1425.00488     751.2943     596.2633   1425.00488     751.2943     596.2633
   1424.98962     751.7067     597.1266   1424.98962     751.7067     597.1266
   1424.97437     751.8137     597.5273   1424.97437     751.8137     597.5273
   1424.95911     752.9281     598.7744   1424.95911     752.9281     598.7744
   1424.94385     753.4763     600.0687   1424.94385     753.4763     600.0687
   1424.92859     752.5093     600.0167   1424.92859     752.5093     600.0167
   1424.91333     753.5947     600.5853   1424.91333     753.5947     600.5853
   1424.89807     754.0374     602.1757   1424.89807     754.0374     602.1757
   1424.88281     754.2161     602.5938   1424.88281     754.2161     602.5938
   1424.86755     755.0239     603.6967   1424.86755     755.0239     603.6967
   1424.85229     753.8210     605.5187   1424.85229     753.8210     605.5187
   1424.83704     754.8927     605.6858   1424.83704     754.8927     605.6858
   1424.82178     752.9365     606.0845   1424.82178     752.9365     606.0845
   1424.80652     754.5109     606.7810   1424.80652     754.5109     606.7810
   1424.79126     755.6814     608.8292   1424.79126     755.6814     608.8292
   1424.77600     755.4852     608.8824   1424.77600     755.4852     608.8824
   1424.76074     755.1637     609.5830   1424.76074     755.1637     609.5830
   1424.74548     755.3596     609.6661   1424.74548     755.3596     609.6661
   1424.73022     755.6778     610.8719   1424.73022     755.6778     610.8719
   1424.71497     755.0635     610.9736   1424.71497     755.0635     610.9736
   1424.69971     755.7778     613.1543   1424.69971     755.7778     613.1543
   1424.68445     754.9083     613.6364   1424.68445     754.9083     613.6364
   1424.66919     756.5331     613.4243   1424.66919     756.5331     613.4243
   1424.65393     755.1746     614.2294   1424.65393     755.1746     614.2294
   1424.63867     756.1511     615.5714   1424.63867     756.1511     615.5714
   1424.62341     755.4319     615.6138   1424.62341     755.4319     615.6138
   1424.60815     755.8214     616.6458   1424.60815     755.8214     616.6458
   1424.59290     756.1517     617.7140   1424.59290     756.1517     617.7140
   1424.57764     756.0676     617.8173   1424.57764     756.0676     617.8173
   1424.56238     754.9068     619.4646   1424.56238     754.9068     619.4646
   1424.54712     754.8063     620.4542   1424.54712     754.8063     620.4542
   1424.53186     754.7603     619.3461   1424.53186     754.7603     619.3461
   1424.51660     755.3293     620.3501   1424.51660     755.3293     620.3501
   1424.50134     755.2439     621.1343   1424.50134     755.2439     621.1343
   1424.48608     754.8142     621.9530   1424.48608     754.8142     621.9530
   1424.47083     755.4295     623.2742   1424.47083     755.4295     623.2742
   1424.45557     755.2886     622.9067   1424.45557     755.2886     622.9067
   1424.44031     754.0652     623.0618   1424.44031     754.0652     623.0618
   1424.42505     753.6248     624.6691   1424.42505     753.6248     624.6691
   1424.40979     754.0156     624.2404   1424.40979     754.0156     624.2404
   1424.39453     754.0629     624.9994   1424.39453     754.0629     624.9994
   1424.37927     753.5739     625.2206   1424.37927     753.5739     625.2206
   1424.36401     753.4364     626.3062   1424.36401     753.4364     626.3062
   1424.34875     753.6273     626.3766   1424.34875     753.6273     626.3766
   1424.33350     753.6254     627.1917   1424.33350     753.6254     627.1917
   1424.31824     753.0524     628.0657   1424.31824     753.0524     628.0657
   1424.30298     752.4921     629.0432   1424.30298     752.4921     629.0432
   1424.28772     750.9842     629.9697   1424.28772     750.9842     629.9697
   1424.27246     751.3473     629.0121   1424.27246     751.3473     629.0121
   1424.25720     751.8357     629.6532   1424.25720     751.8357     629.6532
   1424.24194     752.5652     630.1801   1424.24194     752.5652     630.1801
   1424.22668     751.9525     631.2122   1424.22668     751.9525     631.2122
   1424.21143     750.0414     631.2530   1424.21143     750.0414     631.2530
   1424.19617     751.3041     632.4471   1424.19617     751.3041     632.4471
   1424.18091     751.2600     631.8736   1424.18091     751.2600     631.8736
   1424.16565     752.2377     632.3483   1424.16565     752.2377     632.3483
   1424.15039     751.7564     633.6186   1424.15039     751.7564     633.6186
   1424.13513     750.3836     633.9935   1424.13513     750.3836     633.9935
   1424.11987     750.8246     635.0958   1424.11987     750.8246     635.0958
   1424.10461     750.4732     634.4197   1424.10461     750.4732     634.4197
   1424.08936     750.0263     634.8997   1424.08936     750.0263     634.8997
   1424.07410     748.9598     635.1346   1424.07410     748.9598     635.1346
   1424.05884     748.6431     636.0134   1424.05884     748.6431     636.0134
   1424.04358     749.3312     636.1193   1424.04358     749.3312     636.1193
   1424.02832     749.0870     637.4619   1424.02832     749.0870     637.4619
   1424.01306     748.6458     638.7233   1424.01306     748.6458     638.7233
   1423.99780     749.1791     638.2481   1423.99780     749.1791     638.2481
   1423.98254     748.0356     637.8945   1423.98254     748.0356     637.8945
   1423.96729     747.4908     638.7618   1423.96729     747.4908     638.7618
   1423.95203     747.5447     639.0735   1423.95203     747.5447     639.0735
   1423.93677     746.3682     639.1476   1423.93677     746.3682     639.1476
   1423.92151     746.6630     640.3339   1423.92151     746.6630     640.3339
   1423.90625     747.1129     639.4254   1423.90625     747.1129     639.4254
   1423.89099     746.9067     640.8106   1423.89099     746.9067     640.8106
   1423.87573     746.3439     640.9960   1423.87573     746.3439     640.9960
   1423.86047     746.0491     640.6641   1423.86047     746.0491     640.6641
   1423.84521     745.4706     642.1077   1423.84521     745.4706     642.1077
   1423.82996     745.8844     642.2150   1423.82996     745.8844     642.2150
   1423.81470     745.4546     642.0471   1423.81470     745.4546     642.0471
   1423.79944     744.2736     642.0865   1423.79944     744.2736     642.0865
   1423.78418     744.1895     641.4021   1423.78418     744.1895     641.4021
   1423.76892     743.1380     641.8792   1423.76892     743.1380     641.8792
   1423.75366     741.9866     642.9039   1423.75366     741.9866     642.9039
   1423.73840     743.7810     642.8694   1423.73840     743.7810     642.8694
   1423.72314     743.6207     643.5018   1423.72314     743.6207     643.5018
   1423.70789     742.9410     643.8281   1423.70789     742.9410     643.8281
   1423.69263     744.3643     643.8034   1423.69263     744.3643     643.8034
   1423.67737     743.3112     644.7715   1423.67737     743.3112     644.7715
   1423.66211     742.7549     643.8085   1423.66211     742.7549     643.8085
   1423.64685     742.2195     643.5342   1423.64685     742.2195     643.5342
   1423.63159     740.5060     644.6091   1423.63159     740.5060     644.6091
   1423.61633     740.4786     644.3962   1423.61633     740.4786     644.3962
   1423.60107     741.2862     644.6559   1423.60107     741.2862     644.6559
   1423.58582     740.5462     644.3294   1423.58582     740.5462     644.3294
   1423.57056     740.2050     644.6634   1423.57056     740.2050     644.6634
   1423.55530     740.8203     645.0889   1423.55530     740.8203     645.0889
   1423.54004     741.1428     645.9064   1423.54004     741.1428     645.9064
   1423.52478     739.8093     644.3754   1423.52478     739.8093     644.3754
   1423.50952     740.3611     644.1771   1423.50952     740.3611     644.1771
   1423.49426     739.5305     645.8010   1423.49426     739.5305     645.8010
   1423.47900     740.2363     644.6122   1423.47900     740.2363     644.6122
   1423.46375     738.9843     645.7246   1423.46375     738.9843     645.7246
   1423.44849     738.5224     644.5013   1423.44849     738.5224     644.5013
   1423.43323     738.5162     645.4277   1423.43323     738.5162     645.4277
   1423.41797     738.6443     645.5625   1423.41797     738.6443     645.5625
   1423.40271     739.8781     645.4907   1423.40271     739.8781     645.4907
   1423.38745     739.3668     645.0275   1423.38745     739.3668     645.0275
   1423.37219     737.2381     645.5348   1423.37219     737.2381     645.5348
   1423.35693     737.6886     645.2503   1423.35693     737.6886     645.2503
   1423.34167     737.9688     645.5217   1423.34167     737.9688     645.5217
   1423.32642     737.0014     643.9982   1423.32642     737.0014     643.9982
   1423.31116     736.7836     645.7402   1423.31116     736.7836     645.7402
   1423.29590     736.8931     644.7004   1423.29590     736.8931     644.7004
   1423.28064     737.0261     644.4463   1423.28064     737.0261     644.4463
   1423.26538     735.0337     644.0602   1423.26538     735.0337     644.0602
   1423.25012     736.3427     644.7172   1423.25012     736.3427     644.7172
   1423.23486     736.0952     642.9269   1423.23486     736.0952     642.9269
   1423.21960     736.0901     644.1177   1423.21960     736.0901     644.1177
   1423.20435     736.2356     644.2645   1423.20435     736.2356     644.2645
   1423.18909     734.4829     643.2543   1423.18909     734.4829     643.2543
   1423.17383     734.9232     642.5906   1423.17383     734.9232     642.5906
   1423.15857     734.0124     642.1479   1423.15857     734.0124     642.1479
   1423.14331     735.4590     643.2900   1423.14331     735.4590     643.2900
   1423.12805     734.5145     642.3381   1423.12805     734.5145     642.3381
   1423.11279     732.9294     642.4580   1423.11279     732.9294     642.4580
   1423.09753     734.7131     642.5225   1423.09753     734.7131     642.5225
   1423.08228     733.9981     641.4047   1423.08228     733.9981     641.4047
   1423.06702     733.1696     641.5008   1423.06702     733.1696     641.5008
   1423.05176     732.3540     640.1315   1423.05176     732.3540     640.1315
   1423.03650     733.4274     640.6475   1423.03650     733.4274     640.6475
   1423.02124     732.9029     640.5274   1423.02124     732.9029     640.5274
   1423.00598     733.3776     639.0028   1423.00598     733.3776     639.0028
   1422.99072     732.7534     640.1672   1422.99072     732.7534     640.1672
   1422.97546     733.7874     639.1201   1422.97546     733.7874     639.1201
   1422.96021     732.2151     638.2365   1422.96021     732.2151     638.2365
   1422.94495     732.2218     638.3060   1422.94495     732.2218     638.3060
   1422.92969     732.4581     636.3928   1422.92969     732.4581     636.3928
   1422.91443     731.5264     636.8159   1422.91443     731.5264     636.8159
   1422.89917     731.6736     636.0951   1422.89917     731.6736     636.0951
   1422.88391     730.7402     635.6763   1422.88391     730.7402     635.6763
   1422.86865     732.0860     635.4637   1422.86865     732.0860     635.4637
   1422.85339     732.1462     635.7896   1422.85339     732.1462     635.7896
   1422.83813     731.5247     634.6953   1422.83813     731.5247     634.6953
   1422.82288     731.5537     633.9836   1422.82288     731.5537     633.9836
   1422.80762     730.7021     633.8686   1422.80762     730.7021     633.8686
   1422.79236     730.6331     632.2930   1422.79236     730.6331     632.2930
   1422.77710     729.6990     632.0023   1422.77710     729.6990     632.0023
   1422.76184     731.0070     631.8762   1422.76184     731.0070     631.8762
   1422.74658     731.2827     631.4362   1422.74658     731.2827     631.4362
   1422.73132     729.3876     630.8101   1422.73132     729.3876     630.8101
   1422.71606     729.3228     630.4539   1422.71606     729.3228     630.4539
   1422.70081     728.7361     630.1417   1422.70081     728.7361     630.1417
   1422.68555     730.0294     628.0114   1422.68555     730.0294     628.0114
   1422.67029     728.9225     627.1562   1422.67029     728.9225     627.1562
   1422.65503     729.1673     627.0942   1422.65503     729.1673     627.0942
   1422.63977     728.3810     626.7393   1422.63977     728.3810     626.7393
   1422.62451     728.1635     624.9665   1422.62451     728.1635     624.9665
   1422.60925     729.0722     624.2749   1422.60925     729.0722     624.2749
   1422.59399     727.0378     624.2783   1422.59399     727.0378     624.2783
   1422.57874     728.3189     622.6506   1422.57874     728.3189     622.6506
   1422.56348     728.5672     622.5363   1422.56348     728.5672     622.5363
   1422.54822     727.6656     622.0588   1422.54822     727.6656     622.0588
   1422.53296     727.0734     620.4398   1422.53296     727.0734     620.4398
   1422.51770     727.2497     619.5992   1422.51770     727.2497     619.5992
   1422.50244     726.7101     619.3686   1422.50244     726.7101     619.3686
   1422.48718     727.4904     618.3061   1422.48718     727.4904     618.3061
   1422.47192     727.7426     617.0857   1422.47192     727.7426     617.0857
   1422.45667     727.3578     615.2598   1422.45667     727.3578     615.2598
   1422.44141     726.1365     614.9185   1422.44141     726.1365     614.9185
   1422.42615     727.4440     614.0639   1422.42615     727.4440     614.0639
   1422.41089     726.2048     612.9027   1422.41089     726.2048     612.9027
   1422.39563     726.4111     612.0906   1422.39563     726.4111     612.0906
   1422.38037     725.7906     610.8761   1422.38037     725.7906     610.8761
   1422.36511     725.5137     609.8833   1422.36511     725.5137     609.8833
   1422.34985     725.7729     609.7709   1422.34985     725.7729     609.7709
   1422.33459     725.4037     608.5165   1422.33459     725.4037     608.5165
   1422.31934     725.6887     607.0292   1422.31934     725.6887     607.0292
   1422.30408     726.3721     606.6374   1422.30408     726.3721     606.6374
   1422.28882     725.1848     605.2655   1422.28882     725.1848     605.2655
   1422.27356     724.6968     604.4730   1422.27356     724.6968     604.4730
   1422.25830     725.2155     604.3694   1422.25830     725.2155     604.3694
   1422.24304     723.4036     601.8067   1422.24304     723.4036     601.8067
   1422.22778     723.5572     601.5961   1422.22778     723.5572     601.5961
   1422.21252     723.9800     600.5896   1422.21252     723.9800     600.5896
   1422.19727     724.9182     599.0636   1422.19727     724.9182     599.0636
   1422.18201     724.1999     597.3388   1422.18201     724.1999     597.3388
   1422.16675     724.4774     595.7587   1422.16675     724.4774     595.7587
   1422.15149     723.1546     595.5087   1422.15149     723.1546     595.5087
   1422.13623     722.8300     594.1581   1422.13623     722.8300     594.1581
   1422.12097     723.4881     593.1091   1422.12097     723.4881     593.1091
   1422.10571     724.0361     591.3903   1422.10571     724.0361     591.3903
   1422.09045     721.9470     591.4319   1422.09045     721.9470     591.4319
   1422.07520     722.0861     590.4272   1422.07520     722.0861     590.4272
   1422.05994     722.9880     588.1488   1422.05994     722.9880     588.1488
   1422.04468     722.8693     587.3389   1422.04468     722.8693     587.3389
   1422.02942     722.3151     586.0745   1422.02942     722.3151     586.0745
   1422.01416     722.6604     584.8773   1422.01416     722.6604     584.8773
   1421.99890     721.6784     583.8885   1421.99890     721.6784     583.8885
   1421.98364     721.7280     583.0701   1421.98364     721.7280     583.0701
   1421.96838     721.4990     581.8972   1421.96838     721.4990     581.8972
   1421.95312     720.5254     580.5211   1421.95312     720.5254     580.5211
   1421.93787     720.8629     578.8813   1421.93787     720.8629     578.8813
   1421.92261     723.0424     578.0064   1421.92261     723.0424     578.0064
   1421.90735     720.9462     576.1597   1421.90735     720.9462     576.1597
   1421.89209     720.9499     574.8599   1421.89209     720.9499     574.8599
   1421.87683     720.4005     573.8622   1421.87683     720.4005     573.8622
   1421.86157     721.0450     573.4373   1421.86157     721.0450     573.4373
   1421.84631     719.8085     572.2983   1421.84631     719.8085     572.2983
   1421.83105     720.5397     569.7145   1421.83105     720.5397     569.7145
   1421.81580     720.2886     568.8657   1421.81580     720.2886     568.8657
   1421.80054     719.3296     568.0190   1421.80054     719.3296     568.0190
   1421.78528     719.1810     565.9101   1421.78528     719.1810     565.9101
   1421.77002     718.7487     564.5439   1421.77002     718.7487     564.5439
   1421.75476     717.6146     563.0189   1421.75476     717.6146     563.0189
   1421.73950     718.1782     562.0353   1421.73950     718.1782     562.0353
   1421.72424     717.7301     560.1930   1421.72424     717.7301     560.1930
   1421.70898     718.5656     558.6101   1421.70898     718.5656     558.6101
   1421.69373     717.3005     558.9125   1421.69373     717.3005     558.9125
   1421.67847     718.5090     556.9510   1421.67847     718.5090     556.9510
   1421.66321     717.1165     555.5655   1421.66321     717.1165     555.5655
   1421.64795     717.8878     554.3120   1421.64795     717.8878     554.3120
   1421.63269     716.5469     552.1283   1421.63269     716.5469     552.1283
   1421.61743     716.4711     551.8425   1421.61743     716.4711     551.8425
   1421.60217     717.2836     550.3512   1421.60217     717.2836     550.3512
   1421.58691     716.5780     549.1487   1421.58691     716.5780     549.1487
   1421.57166     716.7205     547.3702   1421.57166     716.7205     547.3702
   1421.55640     715.5676     546.4743   1421.55640     715.5676     546.4743
   1421.54114     715.5845     544.2573   1421.54114     715.5845     544.2573
   1421.52588     716.4828     543.4851   1421.52588     716.4828     543.4851
   1421.51062     715.3538     542.0082   1421.51062     715.3538     542.0082
   1421.49536     714.9736     540.4517   1421.49536     714.9736     540.4517
   1421.48010     716.5006     539.6115   1421.48010     716.5006     539.6115
   1421.46484     714.6694     538.1760   1421.46484     714.6694     538.1760
   1421.44958     714.2211     536.3179   1421.44958     714.2211     536.3179
   1421.43433     713.5481     535.3483   1421.43433     713.5481     535.3483
   1421.41907     714.5978     533.7385   1421.41907     714.5978     533.7385
   1421.40381     714.1130     532.7592   1421.40381     714.1130     532.7592
   1421.38855     714.3354     530.9578   1421.38855     714.3354     530.9578
   1421.37329     713.3600     529.7318   1421.37329     713.3600     529.7318
   1421.35803     713.3828     528.2498   1421.35803     713.3828     528.2498
   1421.34277     713.7911     527.3038   1421.34277     713.7911     527.3038
   1421.32751     713.3938     526.8466   1421.32751     713.3938     526.8466
   1421.31226     713.4924     525.7011   1421.31226     713.4924     525.7011
   1421.29700     715.3684     524.2119   1421.29700     715.3684     524.2119
   1421.28174     714.5966     523.6992   1421.28174     714.5966     523.6992
   1421.26648     714.3550     522.4431   1421.26648     714.3550     522.4431
   1421.25122     713.7281     520.8434   1421.25122     713.7281     520.8434
   1421.23596     715.1210     519.5527   1421.23596     715.1210     519.5527
   1421.22070     714.6473     518.4376   1421.22070     714.6473     518.4376
   1421.20544     714.1365     517.5171   1421.20544     714.1365     517.5171
   1421.19019     714.7606     517.0790   1421.19019     714.7606     517.0790
   1421.17493     715.4975     516.1711   1421.17493     715.4975     516.1711
   1421.15967     716.6269     514.6252   1421.15967     716.6269     514.6252
   1421.14441     717.2265     514.7955   1421.14441     717.2265     514.7955
   1421.12915     719.3824     514.4249   1421.12915     719.3824     514.4249
   1421.11389     722.9139     515.7696   1421.11389     722.9139     515.7696
   1421.09863     729.0596     520.1696   1421.09863     729.0596     520.1696
   1421.08337     738.5156     525.4130   1421.08337     738.5156     525.4130
   1421.06812     755.7354     535.5007   1421.06812     755.7354     535.5007
   1421.05286     778.4227     550.4429   1421.05286     778.4227     550.4429
   1421.03760     809.0730     569.6673   1421.03760     809.0730     569.6673
   1421.02234     841.4838     589.8231   1421.02234     841.4838     589.8231
   1421.00708     858.6084     600.9386   1421.00708     858.6084     600.9386
   1420.99182     869.1762     606.3680   1420.99182     869.1762     606.3680
   1420.97656     874.7059     610.2497   1420.97656     874.7059     610.2497
   1420.96130     871.7547     606.2643   1420.96130     871.7547     606.2643
   1420.94604     846.8228     587.6419   1420.94604     846.8228     587.6419
   1420.93079     818.4979     568.1672   1420.93079     818.4979     568.1672
   1420.91553     803.6672     556.4675   1420.91553     803.6672     556.4675
   1420.90027     803.4182     556.0548   1420.90027     803.4182     556.0548
   1420.88501     822.1829     567.0077   1420.88501     822.1829     567.0077
   1420.86975     873.4255     602.2809   1420.86975     873.4255     602.2809
   1420.85449    1019.1401     697.4291   1420.85449    1019.1401     697.4291
   1420.83923    1331.7140     902.2463   1420.83923    1331.7140     902.2463
   1420.82397    1662.1962    1117.5461   1420.82397    1662.1962    1117.5461
   1420.80872    1860.0844    1245.6023   1420.80872    1860.0844    1245.6023
   1420.79346    2017.3976    1347.3246   1420.79346    2017.3976    1347.3246
   1420.77820    2161.6145    1441.8271   1420.77820    2161.6145    1441.8271
   1420.76294    2130.6892    1416.3809   1420.76294    2130.6892    1416.3809
   1420.74768    1832.3842    1219.1825   1420.74768    1832.3842    1219.1825
   1420.73242    1632.8158    1087.8989   1420.73242    1632.8158    1087.8989
   1420.71716    1702.5646    1128.5186   1420.71716    1702.5646    1128.5186
   1420.70190    1882.0280    1237.8822   1420.70190    1882.0280    1237.8822
   1420.68665    1794.2616    1178.1901   1420.68665    1794.2616    1178.1901
   1420.67139    1424.0778     938.7009   1420.67139    1424.0778     938.7009
   1420.65613    1161.7802     770.2200   1420.65613    1161.7802     770.2200
   1420.64087    1176.3656     778.6766   1420.64087    1176.3656     778.6766
   1420.62561    1323.5480     871.9080   1420.62561    1323.5480     871.9080
   1420.61035    1342.5906     881.3884   1420.61035    1342.5906     881.3884
   1420.59509    1262.5581     829.0726   1420.59509    1262.5581     829.0726
   1420.57983    1210.8959     793.6533   1420.57983    1210.8959     793.6533
   1420.56458    1305.6667     853.2962   1420.56458    1305.6667     853.2962
   1420.54932    1527.7842     993.7155   1420.54932    1527.7842     993.7155
   1420.53406    1815.9310    1177.0054   1420.53406    1815.9310    1177.0054
   1420.51880    2040.7159    1315.4530   1420.51880    2040.7159    1315.4530
   1420.50354    1712.0946    1103.9421   1420.50354    1712.0946    1103.9421
   1420.48828    1261.9203     815.9609   1420.48828    1261.9203     815.9609
   1420.47302     974.9972     632.9204   1420.47302     974.9972     632.9204
   1420.45776     850.5779     554.2925   1420.45776     850.5779     554.2925
   1420.44250     786.1456     510.8317   1420.44250     786.1456     510.8317
   1420.42725     748.3877     487.7005   1420.42725     748.3877     487.7005
   1420.41199     730.2388     474.7628   1420.41199     730.2388     474.7628
   1420.39673     720.1183     467.7293   1420.39673     720.1183     467.7293
   1420.38147     714.2911     462.8489   1420.38147     714.2911     462.8489
   1420.36621     711.3015     460.3161   1420.36621     711.3015     460.3161
   1420.35095     710.4689     458.6653   1420.35095     710.4689     458.6653
   1420.33569     708.9006     457.9396   1420.33569     708.9006     457.9396
   1420.32043     707.3179     455.8668   1420.32043     707.3179     455.8668
   1420.30518     707.6979     456.3872   1420.30518     707.6979     456.3872
   1420.28992     707.0732     454.2909   1420.28992     707.0732     454.2909
   1420.27466     707.0162     452.8312   1420.27466     707.0162     452.8312
   1420.25940     704.5867     452.2318   1420.25940     704.5867     452.2318
   1420.24414     706.7628     451.1664   1420.24414     706.7628     451.1664
   1420.22888     705.7511     449.9875   1420.22888     705.7511     449.9875
   1420.21362     705.6027     449.0699   1420.21362     705.6027     449.0699
   1420.19836     705.6157     447.4280   1420.19836     705.6157     447.4280
   1420.18311     703.3442     445.6740   1420.18311     703.3442     445.6740
   1420.16785     702.8115     444.4288   1420.16785     702.8115     444.4288
   1420.15259     701.4290     443.9215   1420.15259     701.4290     443.9215
   1420.13733     700.5977     442.7646   1420.13733     700.5977     442.7646
   1420.12207     701.0125     441.8963   1420.12207     701.0125     441.8963
   1420.10681     699.7524     441.4965   1420.10681     699.7524     441.4965
   1420.09155     699.3384     440.6027   1420.09155     699.3384     440.6027
   1420.07629     700.0712     438.1439   1420.07629     700.0712     438.1439
   1420.06104     698.7085     438.1797   1420.06104     698.7085     438.1797
   1420.04578     699.1951     438.2495   1420.04578     699.1951     438.2495
   1420.03052     698.2505     437.2353   1420.03052     698.2505     437.2353
   1420.01526     699.8557     436.8943   1420.01526     699.8557     436.8943
   1420.00000     700.2112     438.0994   1420.00000     700.2112     438.0994
   1419.98474     700.5667     439.3045   1419.98474     700.5667     439.3045
   1419.96948     701.4550     435.9969   1419.96948     701.4550     435.9969
   1419.95422     699.1278     434.3123   1419.95422     699.1278     434.3123
   1419.93896     698.5268     433.3529   1419.93896     698.5268     433.3529
   1419.92371     698.5215     432.8011   1419.92371     698.5215     432.8011
   1419.90845     698.1830     432.2114   1419.90845     698.1830     432.2114
   1419.89319     699.0779     431.6722   1419.89319     699.0779     431.6722
   1419.87793     699.3135     431.8266   1419.87793     699.3135     431.8266
   1419.86267     700.6356     430.7594   1419.86267     700.6356     430.7594
   1419.84741     699.8148     430.2209   1419.84741     699.8148     430.2209
   1419.83215     700.0562     429.9703   1419.83215     700.0562     429.9703
   1419.81689     699.9229     429.8792   1419.81689     699.9229     429.8792
   1419.80164     699.0942     429.4417   1419.80164     699.0942     429.4417
   1419.78638     700.2182     429.2678   1419.78638     700.2182     429.2678
   1419.77112     701.3427     428.7143   1419.77112     701.3427     428.7143
   1419.75586     700.3958     428.4192   1419.75586     700.3958     428.4192
   1419.74060     700.9488     428.2397   1419.74060     700.9488     428.2397
   1419.72534     701.0534     427.7350   1419.72534     701.0534     427.7350
   1419.71008     701.7770     426.5922   1419.71008     701.7770     426.5922
   1419.69482     701.9139     427.5661   1419.69482     701.9139     427.5661
   1419.67957     702.3165     426.9450   1419.67957     702.3165     426.9450
   1419.66431     702.3470     426.5561   1419.66431     702.3470     426.5561
   1419.64905     703.1161     426.9862   1419.64905     703.1161     426.9862
   1419.63379     702.1209     426.0203   1419.63379     702.1209     426.0203
   1419.61853     703.5807     426.2197   1419.61853     703.5807     426.2197
   1419.60327     704.3885     426.4043   1419.60327     704.3885     426.4043
   1419.58801     704.6130     425.9860   1419.58801     704.6130     425.9860
   1419.57275     703.6508     425.8270   1419.57275     703.6508     425.8270
   1419.55750     704.8837     426.3091   1419.55750     704.8837     426.3091
   1419.54224     704.8715     425.7024   1419.54224     704.8715     425.7024
   1419.52698     705.2584     425.4618   1419.52698     705.2584     425.4618
   1419.51172     705.9827     425.0374   1419.51172     705.9827     425.0374
   1419.49646     705.6610     424.9583   1419.49646     705.6610     424.9583
   1419.48120     705.7870     425.0623   1419.48120     705.7870     425.0623
   1419.46594     707.4517     424.9520   1419.46594     707.4517     424.9520
   1419.45068     706.3035     424.4485   1419.45068     706.3035     424.4485
   1419.43542     706.6210     425.0321   1419.43542     706.6210     425.0321
   1419.42017     708.0460     424.6094   1419.42017     708.0460     424.6094
   1419.40491     708.2010     424.5530   1419.40491     708.2010     424.5530
   1419.38965     710.0236     424.7281   1419.38965     710.0236     424.7281
   1419.37439     708.2061     425.0069   1419.37439     708.2061     425.0069
   1419.35913     710.1644     425.0015   1419.35913     710.1644     425.0015
   1419.34387     710.1113     424.7847   1419.34387     710.1113     424.7847
   1419.32861     711.0334     425.3842   1419.32861     711.0334     425.3842
   1419.31335     711.2401     424.6540   1419.31335     711.2401     424.6540
   1419.29810     710.6354     425.2435   1419.29810     710.6354     425.2435
   1419.28284     712.9066     425.3097   1419.28284     712.9066     425.3097
   1419.26758     713.2981     426.4630   1419.26758     713.2981     426.4630
   1419.25232     712.3535     425.1744   1419.25232     712.3535     425.1744
   1419.23706     713.2663     425.3838   1419.23706     713.2663     425.3838
   1419.22180     713.6923     425.6844   1419.22180     713.6923     425.6844
   1419.20654     713.4594     426.1437   1419.20654     713.4594     426.1437
   1419.19128     715.7411     425.7102   1419.19128     715.7411     425.7102
   1419.17603     714.4541     425.6664   1419.17603     714.4541     425.6664
   1419.16077     716.3487     426.7763   1419.16077     716.3487     426.7763
   1419.14551     716.4001     426.3442   1419.14551     716.4001     426.3442
   1419.13025     716.2133     427.2383   1419.13025     716.2133     427.2383
   1419.11499     717.3605     426.7318   1419.11499     717.3605     426.7318
   1419.09973     718.1473     427.2163   1419.09973     718.1473     427.2163
   1419.08447     718.5134     427.4005   1419.08447     718.5134     427.4005
   1419.06921     717.7049     428.1540   1419.06921     717.7049     428.1540
   1419.05396     718.9120     428.1712   1419.05396     718.9120     428.1712
   1419.03870     719.5528     428.6446   1419.03870     719.5528     428.6446
   1419.02344     720.6877     428.5023   1419.02344     720.6877     428.5023
   1419.00818     721.1338     428.7217   1419.00818     721.1338     428.7217
   1418.99292     721.3479     429.5905   1418.99292     721.3479     429.5905
   1418.97766     721.7947     429.5959   1418.97766     721.7947     429.5959
   1418.96240     723.1230     430.8592   1418.96240     723.1230     430.8592
   1418.94714     723.8915     429.1704   1418.94714     723.8915     429.1704
   1418.93188     724.1396     430.0894   1418.93188     724.1396     430.0894
   1418.91663     724.2397     430.8506   1418.91663     724.2397     430.8506
   1418.90137     727.4968     431.5084   1418.90137     727.4968     431.5084
   1418.88611     726.2164     432.1104   1418.88611     726.2164     432.1104
   1418.87085     727.4684     432.6087   1418.87085     727.4684     432.6087
   1418.85559     727.9801     432.4546   1418.85559     727.9801     432.4546
   1418.84033     728.3255     432.5692   1418.84033     728.3255     432.5692
   1418.82507     729.0459     433.5155   1418.82507     729.0459     433.5155
   1418.80981     730.8212     434.4066   1418.80981     730.8212     434.4066
   1418.79456     731.0753     434.5807   1418.79456     731.0753     434.5807
   1418.77930     732.4836     434.6922   1418.77930     732.4836     434.6922
   1418.76404     732.7267     435.6431   1418.76404     732.7267     435.6431
   1418.74878     733.3894     435.1141   1418.74878     733.3894     435.1141
   1418.73352     732.7963     436.8586   1418.73352     732.7963     436.8586
   1418.71826     733.3105     437.1871   1418.71826     733.3105     437.1871
   1418.70300     733.3265     437.7587   1418.70300     733.3265     437.7587
   1418.68774     733.8898     437.5021   1418.68774     733.8898     437.5021
   1418.67249     736.6312     438.4476   1418.67249     736.6312     438.4476
   1418.65723     737.2109     439.1332   1418.65723     737.2109     439.1332
   1418.64197     736.8713     439.8987   1418.64197     736.8713     439.8987
   1418.62671     737.0916     440.0590   1418.62671     737.0916     440.0590
   1418.61145     738.3538     440.6008   1418.61145     738.3538     440.6008
   1418.59619     740.6879     441.0286   1418.59619     740.6879     441.0286
   1418.58093     740.3799     442.3636   1418.58093     740.3799     442.3636
   1418.56567     740.3399     442.6270   1418.56567     740.3399     442.6270
   1418.55042     742.9910     443.3313   1418.55042     742.9910     443.3313
   1418.53516     742.5531     444.6815   1418.53516     742.5531     444.6815
   1418.51990     743.7263     444.8992   1418.51990     743.7263     444.8992
   1418.50464     744.1398     444.7501   1418.50464     744.1398     444.7501
   1418.48938     745.2066     446.2096   1418.48938     745.2066     446.2096
   1418.47412     745.3588     446.6546   1418.47412     745.3588     446.6546
   1418.45886     747.3254     447.6224   1418.45886     747.3254     447.6224
   1418.44360     748.6171     447.7560   1418.44360     748.6171     447.7560
   1418.42834     748.0302     449.0697   1418.42834     748.0302     449.0697
   1418.41309     748.4344     449.6663   1418.41309     748.4344     449.6663
   1418.39783     750.9603     450.1800   1418.39783     750.9603     450.1800
   1418.38257     750.2858     450.3455   1418.38257     750.2858     450.3455
   1418.36731     751.7678     451.8033   1418.36731     751.7678     451.8033
   1418.35205     752.7419     452.5321   1418.35205     752.7419     452.5321
   1418.33679     753.4099     453.5914   1418.33679     753.4099     453.5914
   1418.32153     754.1733     454.1914   1418.32153     754.1733     454.1914
   1418.30627     756.0199     455.0400   1418.30627     756.0199     455.0400
   1418.29102     756.1813     455.6128   1418.29102     756.1813     455.6128
   1418.27576     756.7599     455.5542   1418.27576     756.7599     455.5542
   1418.26050     758.8710     456.9131   1418.26050     758.8710     456.9131
   1418.24524     760.1608     458.2231   1418.24524     760.1608     458.2231
   1418.22998     759.8296     458.8750   1418.22998     759.8296     458.8750
   1418.21472     760.6006     459.4336   1418.21472     760.6006     459.4336
   1418.19946     762.0098     459.5286   1418.19946     762.0098     459.5286
   1418.18420     763.2457     460.8240   1418.18420     763.2457     460.8240
   1418.16895     763.9827     462.3761   1418.16895     763.9827     462.3761
   1418.15369     765.0954     461.9614   1418.15369     765.0954     461.9614
   1418.13843     766.0082     464.7249   1418.13843     766.0082     464.7249
   1418.12317     766.9160     465.2852   1418.12317     766.9160     465.2852
   1418.10791     766.7948     466.1958   1418.10791     766.7948     466.1958
   1418.09265     767.7447     466.5227   1418.09265     767.7447     466.5227
   1418.07739     769.2132     466.6717   1418.07739     769.2132     466.6717
   1418.06213     769.9014     468.0726   1418.06213     769.9014     468.0726
   1418.04688     771.3281     469.4234   1418.04688     771.3281     469.4234
   1418.03162     772.9254     470.5240   1418.03162     772.9254     470.5240
   1418.01636     772.4708     470.7838   1418.01636     772.4708     470.7838
   1418.00110     773.2071     471.5323   1418.00110     773.2071     471.5323
   1417.98584     774.5421     472.2427   1417.98584     774.5421     472.2427
   1417.97058     776.0185     473.8627   1417.97058     776.0185     473.8627
   1417.95532     776.0992     474.0839   1417.95532     776.0992     474.0839
   1417.94006     777.7505     474.9003   1417.94006     777.7505     474.9003
   1417.92480     778.4948     475.9287   1417.92480     778.4948     475.9287
   1417.90955     778.8787     477.4879   1417.90955     778.8787     477.4879
   1417.89429     780.0980     477.7436   1417.89429     780.0980     477.7436
   1417.87903     780.8548     478.1819   1417.87903     780.8548     478.1819
   1417.86377     783.2733     479.6539   1417.86377     783.2733     479.6539
   1417.84851     783.5952     480.9855   1417.84851     783.5952     480.9855
   1417.83325     784.9565     481.2942   1417.83325     784.9565     481.2942
   1417.81799     785.5865     482.9181   1417.81799     785.5865     482.9181
   1417.80273     786.8466     484.0565   1417.80273     786.8466     484.0565
   1417.78748     787.3417     484.2423   1417.78748     787.3417     484.2423
   1417.77222     787.6780     484.2222   1417.77222     787.6780     484.2222
   1417.75696     789.2645     486.0054   1417.75696     789.2645     486.0054
   1417.74170     789.4050     487.1006   1417.74170     789.4050     487.1006
   1417.72644     790.8287     487.7386   1417.72644     790.8287     487.7386
   1417.71118     791.9927     488.5864   1417.71118     791.9927     488.5864
   1417.69592     792.2134     490.3751   1417.69592     792.2134     490.3751
   1417.68066     793.9332     490.4626   1417.68066     793.9332     490.4626
   1417.66541     795.4062     491.6642   1417.66541     795.4062     491.6642
   1417.65015     794.3102     493.1206   1417.65015     794.3102     493.1206
   1417.63489     796.5928     493.7437   1417.63489     796.5928     493.7437
   1417.61963     797.4443     495.0591   1417.61963     797.4443     495.0591
   1417.60437     797.9990     495.2380   1417.60437     797.9990     495.2380
   1417.58911     800.0136     496.3384   1417.58911     800.0136     496.3384
   1417.57385     798.3618     497.6679   1417.57385     798.3618     497.6679
   1417.55859     800.6628     498.5582   1417.55859     800.6628     498.5582
   1417.54333     802.0504     499.1681   1417.54333     802.0504     499.1681
   1417.52808     803.2880     500.0447   1417.52808     803.2880     500.0447
   1417.51282     803.6015     500.8024   1417.51282     803.6015     500.8024
   1417.49756     804.9998     502.2648   1417.49756     804.9998     502.2648
   1417.48230     804.7050     503.5196   1417.48230     804.7050     503.5196
   1417.46704     805.7372     503.8813   1417.46704     805.7372     503.8813
   1417.45178     805.6054     504.4025   1417.45178     805.6054     504.4025
   1417.43652     807.2019     504.8798   1417.43652     807.2019     504.8798
   1417.42126     808.8340     505.6949   1417.42126     808.8340     505.6949
   1417.40601     808.2630     506.3031   1417.40601     808.2630     506.3031
   1417.39075     810.4834     508.5511   1417.39075     810.4834     508.5511
   1417.37549     811.0096     509.4727   1417.37549     811.0096     509.4727
   1417.36023     812.5703     509.4728   1417.36023     812.5703     509.4728
   1417.34497     812.4675     510.9346   1417.34497     812.4675     510.9346
   1417.32971     813.6449     510.4825   1417.32971     813.6449     510.4825
   1417.31445     814.5759     512.4424   1417.31445     814.5759     512.4424
   1417.29919     815.2101     512.0759   1417.29919     815.2101     512.0759
   1417.28394     816.4126     513.0052   1417.28394     816.4126     513.0052
   1417.26868     816.7878     514.6880   1417.26868     816.7878     514.6880
   1417.25342     817.8873     514.5684   1417.25342     817.8873     514.5684
   1417.23816     817.0119     515.7059   1417.23816     817.0119     515.7059
   1417.22290     818.7809     517.7281   1417.22290     818.7809     517.7281
   1417.20764     818.5380     518.2058   1417.20764     818.5380     518.2058
   1417.19238     820.6540     518.3571   1417.19238     820.6540     518.3571
   1417.17712     821.5150     518.3705   1417.17712     821.5150     518.3705
   1417.16187     821.5195     519.5616   1417.16187     821.5195     519.5616
   1417.14661     822.6149     520.7673   1417.14661     822.6149     520.7673
   1417.13135     823.4860     520.4567   1417.13135     823.4860     520.4567
   1417.11609     822.7406     521.8458   1417.11609     822.7406     521.8458
   1417.10083     823.8700     522.0620   1417.10083     823.8700     522.0620
   1417.08557     824.6003     523.6268   1417.08557     824.6003     523.6268
   1417.07031     825.6445     523.1046   1417.07031     825.6445     523.1046
   1417.05505     826.1957     523.0877   1417.05505     826.1957     523.0877
   1417.03979     826.0737     523.8622   1417.03979     826.0737     523.8622
   1417.02454     826.8002     525.2971   1417.02454     826.8002     525.2971
   1417.00928     827.2054     524.9448   1417.00928     827.2054     524.9448
   1416.99402     828.7764     526.5388   1416.99402     828.7764     526.5388
   1416.97876     829.3040     525.8083   1416.97876     829.3040     525.8083
   1416.96350     828.8386     527.8917   1416.96350     828.8386     527.8917
   1416.94824     829.8906     526.7349   1416.94824     829.8906     526.7349
   1416.93298     830.2800     527.8795   1416.93298     830.2800     527.8795
   1416.91772     831.1553     528.3616   1416.91772     831.1553     528.3616
   1416.90247     830.0714     529.2848   1416.90247     830.0714     529.2848
   1416.88721     831.0229     528.8067   1416.88721     831.0229     528.8067
   1416.87195     832.7547     528.7110   1416.87195     832.7547     528.7110
   1416.85669     832.4976     529.8659   1416.85669     832.4976     529.8659
   1416.84143     833.5657     530.5684   1416.84143     833.5657     530.5684
   1416.82617     833.0797     531.0471   1416.82617     833.0797     531.0471
   1416.81091     832.7057     531.0417   1416.81091     832.7057     531.0417
   1416.79565     832.9568     531.6953   1416.79565     832.9568     531.6953
   1416.78040     834.2307     531.3232   1416.78040     834.2307     531.3232
   1416.76514     833.4104     532.3520   1416.76514     833.4104     532.3520
   1416.74988     835.2766     531.5121   1416.74988     835.2766     531.5121
   1416.73462     833.7992     532.1847   1416.73462     833.7992     532.1847
   1416.71936     834.0726     532.7675   1416.71936     834.0726     532.7675
   1416.70410     834.2147     532.9631   1416.70410     834.2147     532.9631
   1416.68884     835.4388     532.3680   1416.68884     835.4388     532.3680
   1416.67358     835.2379     532.4234   1416.67358     835.2379     532.4234
   1416.65833     835.4890     532.6953   1416.65833     835.4890     532.6953
   1416.64307     835.5792     533.0543   1416.64307     835.5792     533.0543
   1416.62781     835.9297     533.3809   1416.62781     835.9297     533.3809
   1416.61255     837.0067     533.6129   1416.61255     837.0067     533.6129
   1416.59729     836.6332     533.0752   1416.59729     836.6332     533.0752
   1416.58203     836.2064     532.4008   1416.58203     836.2064     532.4008
   1416.56677     834.8612     532.5198   1416.56677     834.8612     532.5198
   1416.55151     837.2987     533.3121   1416.55151     837.2987     533.3121
   1416.53625     835.7444     532.3056   1416.53625     835.7444     532.3056
   1416.52100     836.0157     531.8724   1416.52100     836.0157     531.8724
   1416.50574     837.0458     533.3867   1416.50574     837.0458     533.3867
   1416.49048     835.8674     532.5357   1416.49048     835.8674     532.5357
   1416.47522     836.4337     532.9014   1416.47522     836.4337     532.9014
   1416.45996     836.2556     532.1176   1416.45996     836.2556     532.1176
   1416.44470     834.0549     532.0398   1416.44470     834.0549     532.0398
   1416.42944     835.4079     532.3641   1416.42944     835.4079     532.3641
   1416.41418     834.2582     532.4149   1416.41418     834.2582     532.4149
   1416.39893     835.6685     531.5197   1416.39893     835.6685     531.5197
   1416.38367     834.9117     531.0694   1416.38367     834.9117     531.0694
   1416.36841     834.9944     531.7853   1416.36841     834.9944     531.7853
   1416.35315     835.2165     530.2397   1416.35315     835.2165     530.2397
   1416.33789     834.2788     530.2126   1416.33789     834.2788     530.2126
   1416.32263     834.1677     529.3544   1416.32263     834.1677     529.3544
   1416.30737     833.1470     529.5699   1416.30737     833.1470     529.5699
   1416.29211     834.0043     528.8841   1416.29211     834.0043     528.8841
   1416.27686     832.9335     530.1156   1416.27686     832.9335     530.1156
   1416.26160     833.0811     528.1604   1416.26160     833.0811     528.1604
   1416.24634     832.1263     528.1192   1416.24634     832.1263     528.1192
   1416.23108     833.5493     527.8347   1416.23108     833.5493     527.8347
   1416.21582     831.8691     526.9716   1416.21582     831.8691     526.9716
   1416.20056     831.5785     527.0009   1416.20056     831.5785     527.0009
   1416.18530     830.0640     526.6782   1416.18530     830.0640     526.6782
   1416.17004     829.5385     526.4893   1416.17004     829.5385     526.4893
   1416.15479     830.8622     525.6469   1416.15479     830.8622     525.6469
   1416.13953     828.8209     525.3354   1416.13953     828.8209     525.3354
   1416.12427     829.7009     525.1041   1416.12427     829.7009     525.1041
   1416.10901     828.2811     524.0829   1416.10901     828.2811     524.0829
   1416.09375     827.6729     523.7645   1416.09375     827.6729     523.7645
   1416.07849     827.8551     523.0823   1416.07849     827.8551     523.0823
   1416.06323     826.6180     522.6696   1416.06323     826.6180     522.6696
   1416.04797     826.2529     522.1835   1416.04797     826.2529     522.1835
   1416.03271     826.1124     521.3887   1416.03271     826.1124     521.3887
   1416.01746     825.5397     521.5316   1416.01746     825.5397     521.5316
   1416.00220     826.5875     520.7585   1416.00220     826.5875     520.7585
   1415.98694     825.0376     520.2173   1415.98694     825.0376     520.2173
   1415.97168     822.9326     519.5239   1415.97168     822.9326     519.5239
   1415.95642     823.5428     519.0459   1415.95642     823.5428     519.0459
   1415.94116     822.3969     518.1634   1415.94116     822.3969     518.1634
   1415.92590     822.0608     517.5887   1415.92590     822.0608     517.5887
   1415.91064     821.8970     517.4875   1415.91064     821.8970     517.4875
   1415.89539     820.8948     516.2712   1415.89539     820.8948     516.2712
   1415.88013     820.5256     516.2525   1415.88013     820.5256     516.2525
   1415.86487     819.5066     515.3936   1415.86487     819.5066     515.3936
   1415.84961     819.8807     515.0901   1415.84961     819.8807     515.0901
   1415.83435     819.0767     514.4407   1415.83435     819.0767     514.4407
   1415.81909     817.9760     514.0179   1415.81909     817.9760     514.0179
   1415.80383     816.9032     512.9376   1415.80383     816.9032     512.9376
   1415.78857     816.5790     513.1543   1415.78857     816.5790     513.1543
   1415.77332     814.1170     511.8465   1415.77332     814.1170     511.8465
   1415.75806     813.2112     511.4279   1415.75806     813.2112     511.4279
   1415.74280     812.8851     510.5755   1415.74280     812.8851     510.5755
   1415.72754     813.4887     510.5954   1415.72754     813.4887     510.5954
   1415.71228     811.3427     510.0736   1415.71228     811.3427     510.0736
   1415.69702     811.2393     508.7010   1415.69702     811.2393     508.7010
   1415.68176     808.9744     506.7302   1415.68176     808.9744     506.7302
   1415.66650     809.1428     506.8543   1415.66650     809.1428     506.8543
   1415.65125     808.5485     506.3592   1415.65125     808.5485     506.3592
   1415.63599     808.0817     505.1027   1415.63599     808.0817     505.1027
   1415.62073     806.4079     505.0674   1415.62073     806.4079     505.0674
   1415.60547     805.6408     504.9363   1415.60547     805.6408     504.9363
   1415.59021     804.8248     504.1086   1415.59021     804.8248     504.1086
   1415.57495     803.0205     503.5912   1415.57495     803.0205     503.5912
   1415.55969     801.9254     502.2710   1415.55969     801.9254     502.2710
   1415.54443     802.2771     502.3627   1415.54443     802.2771     502.3627
   1415.52917     801.6550     500.8750   1415.52917     801.6550     500.8750
   1415.51392     799.5806     500.4028   1415.51392     799.5806     500.4028
   1415.49866     799.7017     500.6318   1415.49866     799.7017     500.6318
   1415.48340     798.4857     499.5988   1415.48340     798.4857     499.5988
   1415.46814     797.1226     499.3238   1415.46814     797.1226     499.3238
   1415.45288     795.2097     498.0757   1415.45288     795.2097     498.0757
   1415.43762     794.4244     497.4673   1415.43762     794.4244     497.4673
   1415.42236     793.6883     496.1081   1415.42236     793.6883     496.1081
   1415.40710     792.5258     496.3329   1415.40710     792.5258     496.3329
   1415.39185     792.2383     495.0338   1415.39185     792.2383     495.0338
   1415.37659     790.5524     494.2453   1415.37659     790.5524     494.2453
   1415.36133     789.4102     493.5291   1415.36133     789.4102     493.5291
   1415.34607     789.4523     492.9750   1415.34607     789.4523     492.9750
   1415.33081     787.2706     491.1718   1415.33081     787.2706     491.1718
   1415.31555     785.7482     491.5000   1415.31555     785.7482     491.5000
   1415.30029     783.8488     490.4574   1415.30029     783.8488     490.4574
   1415.28503     782.7281     489.7860   1415.28503     782.7281     489.7860
   1415.26978     780.8057     488.5854   1415.26978     780.8057     488.5854
   1415.25452     780.9918     487.4840   1415.25452     780.9918     487.4840
   1415.23926     779.1967     487.5061   1415.23926     779.1967     487.5061
   1415.22400     777.3797     486.5586   1415.22400     777.3797     486.5586
   1415.20874     775.7175     485.7383   1415.20874     775.7175     485.7383
   1415.19348     774.2637     485.3367   1415.19348     774.2637     485.3367
   1415.17822     773.9254     485.6548   1415.17822     773.9254     485.6548
   1415.16296     771.5771     483.2556   1415.16296     771.5771     483.2556
   1415.14771     770.5378     482.9416   1415.14771     770.5378     482.9416
   1415.13245     768.1237     481.0983   1415.13245     768.1237     481.0983
   1415.11719     768.5383     481.0680   1415.11719     768.5383     481.0680
   1415.10193     767.3055     479.3542   1415.10193     767.3055     479.3542
   1415.08667     766.3182     479.0008   1415.08667     766.3182     479.0008
   1415.07141     762.6219     478.1793   1415.07141     762.6219     478.1793
   1415.05615     762.2487     477.0474   1415.05615     762.2487     477.0474
   1415.04089     760.8420     476.6272   1415.04089     760.8420     476.6272
   1415.02563     760.3992     474.8516   1415.02563     760.3992     474.8516
   1415.01038     758.0045     474.8738   1415.01038     758.0045     474.8738
   1414.99512     756.6560     474.3107   1414.99512     756.6560     474.3107
   1414.97986     754.1957     472.8738   1414.97986     754.1957     472.8738
   1414.96460     753.3411     472.1860   1414.96460     753.3411     472.1860
   1414.94934     750.9979     470.2692   1414.94934     750.9979     470.2692
   1414.93408     749.0596     470.5298   1414.93408     749.0596     470.5298
   1414.91882     746.9818     469.3273   1414.91882     746.9818     469.3273
   1414.90356     746.2374     468.4032   1414.90356     746.2374     468.4032
   1414.88831     744.2894     466.7262   1414.88831     744.2894     466.7262
   1414.87305     741.8503     466.0359   1414.87305     741.8503     466.0359
   1414.85779     740.0080     465.3269   1414.85779     740.0080     465.3269
   1414.84253     738.3536     464.4300   1414.84253     738.3536     464.4300
   1414.82727     735.6907     463.1441   1414.82727     735.6907     463.1441
   1414.81201     734.3896     461.8190   1414.81201     734.3896     461.8190
   1414.79675     732.0797     461.0111   1414.79675     732.0797     461.0111
   1414.78149     731.3152     460.3104   1414.78149     731.3152     460.3104
   1414.76624     728.6137     459.1400   1414.76624     728.6137     459.1400
   1414.75098     727.2806     458.4969   1414.75098     727.2806     458.4969
   1414.73572     725.0250     456.8333   1414.73572     725.0250     456.8333
   1414.72046     723.2841     455.8605   1414.72046     723.2841     455.8605
   1414.70520     721.0768     454.5964   1414.70520     721.0768     454.5964
   1414.68994     718.2381     453.8724   1414.68994     718.2381     453.8724
   1414.67468     716.6185     452.4940   1414.67468     716.6185     452.4940
   1414.65942     715.4883     451.5462   1414.65942     715.4883     451.5462
   1414.64417     713.8945     450.6004   1414.64417     713.8945     450.6004
   1414.62891     709.4627     449.3557   1414.62891     709.4627     449.3557
   1414.61365     709.2803     448.2951   1414.61365     709.2803     448.2951
   1414.59839     706.9333     445.4562   1414.59839     706.9333     445.4562
   1414.58313     703.9186     445.5893   1414.58313     703.9186     445.5893
   1414.56787     702.6761     444.3194   1414.56787     702.6761     444.3194
   1414.55261     699.6186     443.1122   1414.55261     699.6186     443.1122
   1414.53735     696.5318     442.3129   1414.53735     696.5318     442.3129
   1414.52209     694.9254     440.2098   1414.52209     694.9254     440.2098
   1414.50684     693.8796     439.7365   1414.50684     693.8796     439.7365
   1414.49158     690.0980     438.6514   1414.49158     690.0980     438.6514
   1414.47632     687.8594     436.9886   1414.47632     687.8594     436.9886
   1414.46106     686.8450     435.8771   1414.46106     686.8450     435.8771
   1414.44580     681.9891     434.6177   1414.44580     681.9891     434.6177
   1414.43054     681.2675     433.5568   1414.43054     681.2675     433.5568
   1414.41528     678.1843     432.3011   1414.41528     678.1843     432.3011
   1414.40002     676.5032     430.8767   1414.40002     676.5032     430.8767
   1414.38477     673.1880     429.6496   1414.38477     673.1880     429.6496
   1414.36951     671.9418     428.1799   1414.36951     671.9418     428.1799
   1414.35425     668.1158     426.3501   1414.35425     668.1158     426.3501
   1414.33899     666.1318     425.4999   1414.33899     666.1318     425.4999
   1414.32373     662.9836     423.6782   1414.32373     662.9836     423.6782
   1414.30847     661.3818     422.8308   1414.30847     661.3818     422.8308
   1414.29321     658.7563     421.3818   1414.29321     658.7563     421.3818
   1414.27795     654.8790     419.5891   1414.27795     654.8790     419.5891
   1414.26270     653.4857     418.5093   1414.26270     653.4857     418.5093
   1414.24744     649.9329     417.2740   1414.24744     649.9329     417.2740
   1414.23218     647.9183     415.9874   1414.23218     647.9183     415.9874
   1414.21692     645.6239     414.5903   1414.21692     645.6239     414.5903
   1414.20166     642.4327     412.8498   1414.20166     642.4327     412.8498
   1414.18640     640.7465     411.4045   1414.18640     640.7465     411.4045
   1414.17114     636.6054     410.7098   1414.17114     636.6054     410.7098
   1414.15588     633.6671     408.5809   1414.15588     633.6671     408.5809
   1414.14062     631.8418     408.0086   1414.14062     631.8418     408.0086
   1414.12537     629.4655     405.9501   1414.12537     629.4655     405.9501
   1414.11011     625.8455     404.7139   1414.11011     625.8455     404.7139
   1414.09485     622.9489     402.9067   1414.09485     622.9489     402.9067
   1414.07959     619.9521     401.2803   1414.07959     619.9521     401.2803
   1414.06433     618.2924     399.3012   1414.06433     618.2924     399.3012
   1414.04907     615.6948     398.7426   1414.04907     615.6948     398.7426
   1414.03381     612.0428     396.9203   1414.03381     612.0428     396.9203
   1414.01855     608.8707     395.6298   1414.01855     608.8707     395.6298
   1414.00330     633.9138     402.4204   1414.00330     633.9138     402.4204
   1413.98804     604.0419     393.0036   1413.98804     604.0419     393.0036
   1413.97278     600.4654     390.6308   1413.97278     600.4654     390.6308
   1413.95752     597.0231     389.6346   1413.95752     597.0231     389.6346
   1413.94226     594.7187     387.3908   1413.94226     594.7187     387.3908
   1413.92700     591.7894     386.3476   1413.92700     591.7894     386.3476
   1413.91174     588.4012     384.5449   1413.91174     588.4012     384.5449
   1413.89648     585.8441     383.4894   1413.89648     585.8441     383.4894
   1413.88123     582.9436     381.8068   1413.88123     582.9436     381.8068
   1413.86597     578.7197     380.0777   1413.86597     578.7197     380.0777
   1413.85071     576.0248     378.5102   1413.85071     576.0248     378.5102
   1413.83545     573.3051     376.4535   1413.83545     573.3051     376.4535
   1413.82019     570.9436     376.1223   1413.82019     570.9436     376.1223
   1413.80493     567.3185     373.7874   1413.80493     567.3185     373.7874
   1413.78967     564.5551     372.3077   1413.78967     564.5551     372.3077
   1413.77441     561.6131     370.5122   1413.77441     561.6131     370.5122
   1413.75916     558.1353     368.9797   1413.75916     558.1353     368.9797
   1413.74390     554.9697     367.6507   1413.74390     554.9697     367.6507
   1413.72864     551.9849     366.1719   1413.72864     551.9849     366.1719
   1413.71338     549.6849     364.9072   1413.71338     549.6849     364.9072
   1413.69812     546.2427     362.8355   1413.69812     546.2427     362.8355
   1413.68286     543.5059     362.0769   1413.68286     543.5059     362.0769
   1413.66760     540.8635     360.4242   1413.66760     540.8635     360.4242
   1413.65234     537.7202     358.4471   1413.65234     537.7202     358.4471
   1413.63708     534.6877     356.8013   1413.63708     534.6877     356.8013
   1413.62183     530.2300     355.0918   1413.62183     530.2300     355.0918
   1413.60657     527.9155     353.7543   1413.60657     527.9155     353.7543
   1413.59131     524.8094     352.2490   1413.59131     524.8094     352.2490
   1413.57605     521.5689     350.5327   1413.57605     521.5689     350.5327
   1413.56079     520.0137     348.8391   1413.56079     520.0137     348.8391
   1413.54553     516.8817     347.9844   1413.54553     516.8817     347.9844
   1413.53027     513.5828     345.4767   1413.53027     513.5828     345.4767
   1413.51501     510.4357     343.8340   1413.51501     510.4357     343.8340
   1413.49976     506.5760     342.8137   1413.49976     506.5760     342.8137
   1413.48450     504.0798     341.2888   1413.48450     504.0798     341.2888
   1413.46924     501.5195     340.2252   1413.46924     501.5195     340.2252
   1413.45398     497.8547     338.3635   1413.45398     497.8547     338.3635
   1413.43872     496.7124     336.9098   1413.43872     496.7124     336.9098
   1413.42346     492.4300     334.9731   1413.42346     492.4300     334.9731
   1413.40820     489.6961     333.8614   1413.40820     489.6961     333.8614
   1413.39294     486.7997     332.3471   1413.39294     486.7997     332.3471
   1413.37769     483.9012     330.8016   1413.37769     483.9012     330.8016
   1413.36243     481.6711     330.1343   1413.36243     481.6711     330.1343
   1413.34717     478.2509     328.3078   1413.34717     478.2509     328.3078
   1413.33191     475.3496     326.1530   1413.33191     475.3496     326.1530
   1413.31665     472.7107     325.3417   1413.31665     472.7107     325.3417
   1413.30139     470.0641     323.4842   1413.30139     470.0641     323.4842
   1413.28613     467.5254     322.3040   1413.28613     467.5254     322.3040
   1413.27087     464.4260     320.5207   1413.27087     464.4260     320.5207
   1413.25562     462.7426     320.0993   1413.25562     462.7426     320.0993
   1413.24036     459.6652     317.7823   1413.24036     459.6652     317.7823
   1413.22510     456.2336     316.7521   1413.22510     456.2336     316.7521
   1413.20984     454.2388     315.5827   1413.20984     454.2388     315.5827
   1413.19458     451.6409     314.6872   1413.19458     451.6409     314.6872
   1413.17932     449.6069     313.0663   1413.17932     449.6069     313.0663
   1413.16406     446.1049     311.5538   1413.16406     446.1049     311.5538
   1413.14880     444.1957     310.5518   1413.14880     444.1957     310.5518
   1413.13354     441.7157     309.5614   1413.13354     441.7157     309.5614
   1413.11829     439.5500     308.0267   1413.11829     439.5500     308.0267
   1413.10303     437.2582     306.8348   1413.10303     437.2582     306.8348
   1413.08777     434.4652     305.2576   1413.08777     434.4652     305.2576
   1413.07251     431.5049     304.7476   1413.07251     431.5049     304.7476
   1413.05725     430.2729     303.5215   1413.05725     430.2729     303.5215
   1413.04199     426.9527     302.2190   1413.04199     426.9527     302.2190
   1413.02673     425.4336     300.9795   1413.02673     425.4336     300.9795
   1413.01147     422.7750     300.5181   1413.01147     422.7750     300.5181
   1412.99622     421.5724     298.7426   1412.99622     421.5724     298.7426
   1412.98096     418.8036     297.5560   1412.98096     418.8036     297.5560
   1412.96570     416.8885     297.0751   1412.96570     416.8885     297.0751
   1412.95044     415.2154     296.0260   1412.95044     415.2154     296.0260
   1412.93518     412.8304     295.0125   1412.93518     412.8304     295.0125
   1412.91992     410.9762     294.3854   1412.91992     410.9762     294.3854
   1412.90466     409.1403     293.1530   1412.90466     409.1403     293.1530
   1412.88940     407.1028     292.1678   1412.88940     407.1028     292.1678
   1412.87415     404.6768     290.9760   1412.87415     404.6768     290.9760
   1412.85889     403.7429     290.9251   1412.85889     403.7429     290.9251
   1412.84363     402.2183     289.7782   1412.84363     402.2183     289.7782
   1412.82837     400.3115     289.0059   1412.82837     400.3115     289.0059
   1412.81311     398.4861     288.0141   1412.81311     398.4861     288.0141
   1412.79785     396.2510     287.6562   1412.79785     396.2510     287.6562
   1412.78259     394.9710     286.9491   1412.78259     394.9710     286.9491
   1412.76733     393.3856     286.6719   1412.76733     393.3856     286.6719
   1412.75208     392.4792     285.6321   1412.75208     392.4792     285.6321
   1412.73682     390.7218     284.9613   1412.73682     390.7218     284.9613
   1412.72156     389.5726     284.6173   1412.72156     389.5726     284.6173
   1412.70630     388.5078     284.3394   1412.70630     388.5078     284.3394
   1412.69104     386.7816     283.5144   1412.69104     386.7816     283.5144
   1412.67578     386.2225     282.7930   1412.67578     386.2225     282.7930
   1412.66052     385.3265     282.7512   1412.66052     385.3265     282.7512
   1412.64526     384.0716     282.1989   1412.64526     384.0716     282.1989
   1412.63000     383.0592     282.1329   1412.63000     383.0592     282.1329
   1412.61475     381.8660     281.3569   1412.61475     381.8660     281.3569
   1412.59949     381.2343     281.1011   1412.59949     381.2343     281.1011
   1412.58423     379.7092     281.1150   1412.58423     379.7092     281.1150
   1412.56897     379.5524     280.7598   1412.56897     379.5524     280.7598
   1412.55371     378.4550     280.7605   1412.55371     378.4550     280.7605
   1412.53845     378.3294     280.4921   1412.53845     378.3294     280.4921
   1412.52319     377.2666     280.6503   1412.52319     377.2666     280.6503
   1412.50793     376.9584     280.0843   1412.50793     376.9584     280.0843
   1412.49268     376.2189     280.0248   1412.49268     376.2189     280.0248
   1412.47742     376.0323     280.3485   1412.47742     376.0323     280.3485
   1412.46216     375.0935     279.9631   1412.46216     375.0935     279.9631
   1412.44690     374.8023     280.2704   1412.44690     374.8023     280.2704
   1412.43164     374.8541     280.3103   1412.43164     374.8541     280.3103
   1412.41638     373.7586     280.7210   1412.41638     373.7586     280.7210
   1412.40112     374.2914     280.7380   1412.40112     374.2914     280.7380
   1412.38586     374.5612     281.4265   1412.38586     374.5612     281.4265
   1412.37061     373.4738     281.5391   1412.37061     373.4738     281.5391
   1412.35535     374.1758     281.7396   1412.35535     374.1758     281.7396
   1412.34009     373.6930     282.1069   1412.34009     373.6930     282.1069
   1412.32483     373.5042     282.3817   1412.32483     373.5042     282.3817
   1412.30957     373.9550     282.5388   1412.30957     373.9550     282.5388
   1412.29431     374.8491     282.9719   1412.29431     374.8491     282.9719
   1412.27905     374.8129     283.8714   1412.27905     374.8129     283.8714
   1412.26379     374.9374     284.3465   1412.26379     374.9374     284.3465
   1412.24854     375.5550     284.3593   1412.24854     375.5550     284.3593
   1412.23328     375.0536     285.6324   1412.23328     375.0536     285.6324
   1412.21802     377.0177     286.0113   1412.21802     377.0177     286.0113
   1412.20276     377.0549     286.8458   1412.20276     377.0549     286.8458