#     FILENAME=!Skynet_57528_lach-cc-229_20645_21028.cyb.fits
#     BASENAME=Skynet_57528_lach-cc-229_20645_21028
#     SRC_NAME=lach-cc-229
#     OBSERVER=ccmadison16_9505
#     DATE_OBS=2016-05-20T19:32:04.000
#        OBSID=20645
#      SCANNUM=21028
#          MJD=57528.8150
#          UTC=70413
#     SCANTYPE=track
#     DATAMODE=HIRES
#     TUNEFREQ=1420.0000
# Actual_FREQ1=1420.0000
# Actual_FREQ2=1420.0000
#    LO1Tuning=6870.000
#     RFFILTER=1355_1435
#        OBSBW=-15.6250
#        NCHAN=1024 
#        FOCUS=37.0709
#           RA=07:21:19.90
#          DEC=-14:15:41.33
#      RA(hrs)=7.355500
#     DEC(deg)=-14.261500
#    AZIM(deg)=157.626
#    ELEV(deg)=34.349
#     IFattens=10.00, 9.00
#      WARNING=None
#    TCAL_XL1=7.9635
#    TCAL_YR1=9.1340
#    TCAL_XL2=7.9635
#    TCAL_YR2=9.1340
#     TRX_XL1=11.7060
#     TRX_YR1=11.7060
#     TRX_XL2=11.7060
#     TRX_YR2=11.7060
#        TAVE=1.0000
#Freq1(MHz)          XL1          YR1  Freq2(MHz)          XL2          YR2 

   1427.81250     358.8685     279.0698   1427.81250     358.8685     279.0698
   1427.79724     359.6490     279.4958   1427.79724     359.6490     279.4958
   1427.78198     360.2394     279.9725   1427.78198     360.2394     279.9725
   1427.76672     360.6198     280.4711   1427.76672     360.6198     280.4711
   1427.75146     362.4401     281.1143   1427.75146     362.4401     281.1143
   1427.73621     361.8509     281.9432   1427.73621     361.8509     281.9432
   1427.72095     363.9019     282.2087   1427.72095     363.9019     282.2087
   1427.70569     364.6570     283.7629   1427.70569     364.6570     283.7629
   1427.69043     365.7670     283.9182   1427.69043     365.7670     283.9182
   1427.67517     366.4211     284.3756   1427.67517     366.4211     284.3756
   1427.65991     368.4606     285.3847   1427.65991     368.4606     285.3847
   1427.64465     369.2741     286.2890   1427.64465     369.2741     286.2890
   1427.62939     370.2209     287.3827   1427.62939     370.2209     287.3827
   1427.61414     371.5374     288.3768   1427.61414     371.5374     288.3768
   1427.59888     373.0747     288.8312   1427.59888     373.0747     288.8312
   1427.58362     374.5185     290.0800   1427.58362     374.5185     290.0800
   1427.56836     375.8093     291.2980   1427.56836     375.8093     291.2980
   1427.55310     377.3549     292.4707   1427.55310     377.3549     292.4707
   1427.53784     378.4986     293.2993   1427.53784     378.4986     293.2993
   1427.52258     380.4207     294.6944   1427.52258     380.4207     294.6944
   1427.50732     381.6694     295.5623   1427.50732     381.6694     295.5623
   1427.49207     383.5112     296.5465   1427.49207     383.5112     296.5465
   1427.47681     385.9091     297.9045   1427.47681     385.9091     297.9045
   1427.46155     386.9936     299.3058   1427.46155     386.9936     299.3058
   1427.44629     389.1535     300.6656   1427.44629     389.1535     300.6656
   1427.43103     390.2633     302.1363   1427.43103     390.2633     302.1363
   1427.41577     392.2357     304.0442   1427.41577     392.2357     304.0442
   1427.40051     394.3491     304.9731   1427.40051     394.3491     304.9731
   1427.38525     395.8820     306.0490   1427.38525     395.8820     306.0490
   1427.37000     398.1334     307.7461   1427.37000     398.1334     307.7461
   1427.35474     400.0361     309.7259   1427.35474     400.0361     309.7259
   1427.33948     402.8525     311.0630   1427.33948     402.8525     311.0630
   1427.32422     404.7953     312.5610   1427.32422     404.7953     312.5610
   1427.30896     406.8062     314.0374   1427.30896     406.8062     314.0374
   1427.29370     408.6660     315.5291   1427.29370     408.6660     315.5291
   1427.27844     411.5842     317.9179   1427.27844     411.5842     317.9179
   1427.26318     413.3572     319.3550   1427.26318     413.3572     319.3550
   1427.24792     415.2904     320.7379   1427.24792     415.2904     320.7379
   1427.23267     417.7387     322.6609   1427.23267     417.7387     322.6609
   1427.21741     419.9117     324.4924   1427.21741     419.9117     324.4924
   1427.20215     422.5524     326.1916   1427.20215     422.5524     326.1916
   1427.18689     424.5826     328.1074   1427.18689     424.5826     328.1074
   1427.17163     427.3058     330.1250   1427.17163     427.3058     330.1250
   1427.15637     429.8672     331.4619   1427.15637     429.8672     331.4619
   1427.14111     432.4336     333.6638   1427.14111     432.4336     333.6638
   1427.12585     434.3490     335.5572   1427.12585     434.3490     335.5572
   1427.11060     436.9427     337.7032   1427.11060     436.9427     337.7032
   1427.09534     439.2850     340.1411   1427.09534     439.2850     340.1411
   1427.08008     442.8024     342.2504   1427.08008     442.8024     342.2504
   1427.06482     444.2412     344.0966   1427.06482     444.2412     344.0966
   1427.04956     447.0183     346.3738   1427.04956     447.0183     346.3738
   1427.03430     449.7790     348.2508   1427.03430     449.7790     348.2508
   1427.01904     452.8161     350.9674   1427.01904     452.8161     350.9674
   1427.00378     455.4137     352.5332   1427.00378     455.4137     352.5332
   1426.98853     458.8305     355.0414   1426.98853     458.8305     355.0414
   1426.97327     461.4198     356.9574   1426.97327     461.4198     356.9574
   1426.95801     463.7868     358.4514   1426.95801     463.7868     358.4514
   1426.94275     466.2076     360.8750   1426.94275     466.2076     360.8750
   1426.92749     468.7702     362.7975   1426.92749     468.7702     362.7975
   1426.91223     471.8727     366.0839   1426.91223     471.8727     366.0839
   1426.89697     474.1227     367.4171   1426.89697     474.1227     367.4171
   1426.88171     477.8732     369.9478   1426.88171     477.8732     369.9478
   1426.86646     480.8941     372.5131   1426.86646     480.8941     372.5131
   1426.85120     483.5694     374.5006   1426.85120     483.5694     374.5006
   1426.83594     486.4528     376.7545   1426.83594     486.4528     376.7545
   1426.82068     488.0760     379.4626   1426.82068     488.0760     379.4626
   1426.80542     491.3692     381.5063   1426.80542     491.3692     381.5063
   1426.79016     494.8175     383.6396   1426.79016     494.8175     383.6396
   1426.77490     496.8698     386.5221   1426.77490     496.8698     386.5221
   1426.75964     499.6646     388.3644   1426.75964     499.6646     388.3644
   1426.74438     502.8866     391.1960   1426.74438     502.8866     391.1960
   1426.72913     505.3343     393.2709   1426.72913     505.3343     393.2709
   1426.71387     508.7515     395.1033   1426.71387     508.7515     395.1033
   1426.69861     511.5169     398.2473   1426.69861     511.5169     398.2473
   1426.68335     514.4867     401.4793   1426.68335     514.4867     401.4793
   1426.66809     516.9514     403.0999   1426.66809     516.9514     403.0999
   1426.65283     520.6447     405.2746   1426.65283     520.6447     405.2746
   1426.63757     522.5911     408.0552   1426.63757     522.5911     408.0552
   1426.62231     533.3274     414.3441   1426.62231     533.3274     414.3441
   1426.60706     529.6611     412.8671   1426.60706     529.6611     412.8671
   1426.59180     531.9348     415.1251   1426.59180     531.9348     415.1251
   1426.57654     533.6611     417.3203   1426.57654     533.6611     417.3203
   1426.56128     538.0768     419.2752   1426.56128     538.0768     419.2752
   1426.54602     539.7125     423.4030   1426.54602     539.7125     423.4030
   1426.53076     543.0659     424.5066   1426.53076     543.0659     424.5066
   1426.51550     544.7612     427.1855   1426.51550     544.7612     427.1855
   1426.50024     548.8575     430.2299   1426.50024     548.8575     430.2299
   1426.48499     551.6262     432.3395   1426.48499     551.6262     432.3395
   1426.46973     554.1880     434.8300   1426.46973     554.1880     434.8300
   1426.45447     556.1936     437.3300   1426.45447     556.1936     437.3300
   1426.43921     560.2206     439.9850   1426.43921     560.2206     439.9850
   1426.42395     562.4565     441.6395   1426.42395     562.4565     441.6395
   1426.40869     565.0082     444.9900   1426.40869     565.0082     444.9900
   1426.39343     567.8803     446.8281   1426.39343     567.8803     446.8281
   1426.37817     570.4819     449.5296   1426.37817     570.4819     449.5296
   1426.36292     573.2474     451.6552   1426.36292     573.2474     451.6552
   1426.34766     576.0218     454.3725   1426.34766     576.0218     454.3725
   1426.33240     578.7650     456.2867   1426.33240     578.7650     456.2867
   1426.31714     582.0186     459.0177   1426.31714     582.0186     459.0177
   1426.30188     583.7175     460.7215   1426.30188     583.7175     460.7215
   1426.28662     586.4681     463.4842   1426.28662     586.4681     463.4842
   1426.27136     589.2992     466.1491   1426.27136     589.2992     466.1491
   1426.25610     591.3301     468.4459   1426.25610     591.3301     468.4459
   1426.24084     594.7416     471.1633   1426.24084     594.7416     471.1633
   1426.22559     596.3262     473.1073   1426.22559     596.3262     473.1073
   1426.21033     599.5853     475.5110   1426.21033     599.5853     475.5110
   1426.19507     602.7429     477.6093   1426.19507     602.7429     477.6093
   1426.17981     604.5997     480.7972   1426.17981     604.5997     480.7972
   1426.16455     608.1469     483.2955   1426.16455     608.1469     483.2955
   1426.14929     609.5877     485.0956   1426.14929     609.5877     485.0956
   1426.13403     611.8893     487.3558   1426.13403     611.8893     487.3558
   1426.11877     614.0396     489.9422   1426.11877     614.0396     489.9422
   1426.10352     616.9478     492.7951   1426.10352     616.9478     492.7951
   1426.08826     619.1213     494.0561   1426.08826     619.1213     494.0561
   1426.07300     621.4583     496.5176   1426.07300     621.4583     496.5176
   1426.05774     624.8848     499.0537   1426.05774     624.8848     499.0537
   1426.04248     625.1961     500.7154   1426.04248     625.1961     500.7154
   1426.02722     628.6909     502.9244   1426.02722     628.6909     502.9244
   1426.01196     630.8483     506.6203   1426.01196     630.8483     506.6203
   1425.99670     633.1343     509.0644   1425.99670     633.1343     509.0644
   1425.98145     634.0850     510.6367   1425.98145     634.0850     510.6367
   1425.96619     636.4580     512.6455   1425.96619     636.4580     512.6455
   1425.95093     639.8438     515.3281   1425.95093     639.8438     515.3281
   1425.93567     641.7061     516.1109   1425.93567     641.7061     516.1109
   1425.92041     644.1015     519.1047   1425.92041     644.1015     519.1047
   1425.90515     645.3888     520.9414   1425.90515     645.3888     520.9414
   1425.88989     646.4688     523.0841   1425.88989     646.4688     523.0841
   1425.87463     650.0688     525.1392   1425.87463     650.0688     525.1392
   1425.85938     652.1125     528.6416   1425.85938     652.1125     528.6416
   1425.84412     653.9312     529.8269   1425.84412     653.9312     529.8269
   1425.82886     656.0692     531.8477   1425.82886     656.0692     531.8477
   1425.81360     658.2114     533.7277   1425.81360     658.2114     533.7277
   1425.79834     660.8005     536.9817   1425.79834     660.8005     536.9817
   1425.78308     661.3318     537.7664   1425.78308     661.3318     537.7664
   1425.76782     662.7974     540.7406   1425.76782     662.7974     540.7406
   1425.75256     663.7899     542.3464   1425.75256     663.7899     542.3464
   1425.73730     666.0409     544.8800   1425.73730     666.0409     544.8800
   1425.72205     668.9361     546.0296   1425.72205     668.9361     546.0296
   1425.70679     670.1100     548.4529   1425.70679     670.1100     548.4529
   1425.69153     671.7744     550.4798   1425.69153     671.7744     550.4798
   1425.67627     672.8350     552.5756   1425.67627     672.8350     552.5756
   1425.66101     674.2168     554.3085   1425.66101     674.2168     554.3085
   1425.64575     674.4814     556.5561   1425.64575     674.4814     556.5561
   1425.63049     677.6435     557.6318   1425.63049     677.6435     557.6318
   1425.61523     679.8671     560.7102   1425.61523     679.8671     560.7102
   1425.59998     680.2468     562.3193   1425.59998     680.2468     562.3193
   1425.58472     681.8817     563.9525   1425.58472     681.8817     563.9525
   1425.56946     683.7122     565.8413   1425.56946     683.7122     565.8413
   1425.55420     684.3604     568.3641   1425.55420     684.3604     568.3641
   1425.53894     687.0108     569.5713   1425.53894     687.0108     569.5713
   1425.52368     687.5923     571.8608   1425.52368     687.5923     571.8608
   1425.50842     688.9798     573.7144   1425.50842     688.9798     573.7144
   1425.49316     691.2508     575.9614   1425.49316     691.2508     575.9614
   1425.47791     690.8572     577.3711   1425.47791     690.8572     577.3711
   1425.46265     692.2922     579.5676   1425.46265     692.2922     579.5676
   1425.44739     694.9333     581.2552   1425.44739     694.9333     581.2552
   1425.43213     695.3969     582.9733   1425.43213     695.3969     582.9733
   1425.41687     697.5236     585.4556   1425.41687     697.5236     585.4556
   1425.40161     696.5844     585.9616   1425.40161     696.5844     585.9616
   1425.38635     698.4573     587.9854   1425.38635     698.4573     587.9854
   1425.37109     700.4335     590.2032   1425.37109     700.4335     590.2032
   1425.35583     701.1758     591.7330   1425.35583     701.1758     591.7330
   1425.34058     701.8810     593.5553   1425.34058     701.8810     593.5553
   1425.32532     704.0860     594.8560   1425.32532     704.0860     594.8560
   1425.31006     702.9301     596.9561   1425.31006     702.9301     596.9561
   1425.29480     704.3904     597.8268   1425.29480     704.3904     597.8268
   1425.27954     705.2747     599.9098   1425.27954     705.2747     599.9098
   1425.26428     706.4828     600.0051   1425.26428     706.4828     600.0051
   1425.24902     707.8809     603.9611   1425.24902     707.8809     603.9611
   1425.23376     708.8684     605.1005   1425.23376     708.8684     605.1005
   1425.21851     709.3785     606.3956   1425.21851     709.3785     606.3956
   1425.20325     708.7308     607.2785   1425.20325     708.7308     607.2785
   1425.18799     711.3414     608.8348   1425.18799     711.3414     608.8348
   1425.17273     711.2205     610.4710   1425.17273     711.2205     610.4710
   1425.15747     712.2095     611.8000   1425.15747     712.2095     611.8000
   1425.14221     712.3859     613.8797   1425.14221     712.3859     613.8797
   1425.12695     712.7055     616.0298   1425.12695     712.7055     616.0298
   1425.11169     714.3783     616.9865   1425.11169     714.3783     616.9865
   1425.09644     715.3554     618.0914   1425.09644     715.3554     618.0914
   1425.08118     715.0189     618.9654   1425.08118     715.0189     618.9654
   1425.06592     717.2164     619.9033   1425.06592     717.2164     619.9033
   1425.05066     716.2840     622.4407   1425.05066     716.2840     622.4407
   1425.03540     716.6985     623.2926   1425.03540     716.6985     623.2926
   1425.02014     717.3183     625.6733   1425.02014     717.3183     625.6733
   1425.00488     718.3945     626.0101   1425.00488     718.3945     626.0101
   1424.98962     719.3212     627.4276   1424.98962     719.3212     627.4276
   1424.97437     718.6803     628.0908   1424.97437     718.6803     628.0908
   1424.95911     719.7303     630.0024   1424.95911     719.7303     630.0024
   1424.94385     719.4312     631.1993   1424.94385     719.4312     631.1993
   1424.92859     720.5305     631.6673   1424.92859     720.5305     631.6673
   1424.91333     720.8232     633.3520   1424.91333     720.8232     633.3520
   1424.89807     722.0510     633.8353   1424.89807     722.0510     633.8353
   1424.88281     721.5056     636.4058   1424.88281     721.5056     636.4058
   1424.86755     722.2411     636.9756   1424.86755     722.2411     636.9756
   1424.85229     721.3109     639.0767   1424.85229     721.3109     639.0767
   1424.83704     722.4654     640.3409   1424.83704     722.4654     640.3409
   1424.82178     722.3693     640.7347   1424.82178     722.3693     640.7347
   1424.80652     723.4434     640.1472   1424.80652     723.4434     640.1472
   1424.79126     723.6686     642.5296   1424.79126     723.6686     642.5296
   1424.77600     724.1113     644.3110   1424.77600     724.1113     644.3110
   1424.76074     723.3218     644.4456   1424.76074     723.3218     644.4456
   1424.74548     722.2718     646.4248   1424.74548     722.2718     646.4248
   1424.73022     724.4749     646.7259   1424.73022     724.4749     646.7259
   1424.71497     724.3727     647.7770   1424.71497     724.3727     647.7770
   1424.69971     725.1678     648.4080   1424.69971     725.1678     648.4080
   1424.68445     724.8721     649.5660   1424.68445     724.8721     649.5660
   1424.66919     725.6375     650.4282   1424.66919     725.6375     650.4282
   1424.65393     725.2561     652.6514   1424.65393     725.2561     652.6514
   1424.63867     724.5184     653.2880   1424.63867     724.5184     653.2880
   1424.62341     726.1135     653.8160   1424.62341     726.1135     653.8160
   1424.60815     725.5896     655.3336   1424.60815     725.5896     655.3336
   1424.59290     724.2730     654.7691   1424.59290     724.2730     654.7691
   1424.57764     724.2291     655.1823   1424.57764     724.2291     655.1823
   1424.56238     726.0593     658.1406   1424.56238     726.0593     658.1406
   1424.54712     724.4661     657.0483   1424.54712     724.4661     657.0483
   1424.53186     724.2563     659.0673   1424.53186     724.2563     659.0673
   1424.51660     725.4702     658.9001   1424.51660     725.4702     658.9001
   1424.50134     725.3605     660.2246   1424.50134     725.3605     660.2246
   1424.48608     725.6164     660.1068   1424.48608     725.6164     660.1068
   1424.47083     725.3300     661.0883   1424.47083     725.3300     661.0883
   1424.45557     724.9363     663.0455   1424.45557     724.9363     663.0455
   1424.44031     724.7275     663.1492   1424.44031     724.7275     663.1492
   1424.42505     725.0250     663.3741   1424.42505     725.0250     663.3741
   1424.40979     724.7842     664.7557   1424.40979     724.7842     664.7557
   1424.39453     726.5152     665.1155   1424.39453     726.5152     665.1155
   1424.37927     725.1159     665.5811   1424.37927     725.1159     665.5811
   1424.36401     724.5619     666.6201   1424.36401     724.5619     666.6201
   1424.34875     725.5979     666.6417   1424.34875     725.5979     666.6417
   1424.33350     725.1805     667.8140   1424.33350     725.1805     667.8140
   1424.31824     725.3220     667.0787   1424.31824     725.3220     667.0787
   1424.30298     724.4789     669.2324   1424.30298     724.4789     669.2324
   1424.28772     723.8915     669.1614   1424.28772     723.8915     669.1614
   1424.27246     724.2891     668.2083   1424.27246     724.2891     668.2083
   1424.25720     724.4261     668.5447   1424.25720     724.4261     668.5447
   1424.24194     723.9550     670.8781   1424.24194     723.9550     670.8781
   1424.22668     723.7350     669.3953   1424.22668     723.7350     669.3953
   1424.21143     723.1013     670.2760   1424.21143     723.1013     670.2760
   1424.19617     724.2198     671.0963   1424.19617     724.2198     671.0963
   1424.18091     724.2626     672.2305   1424.18091     724.2626     672.2305
   1424.16565     722.1298     671.9219   1424.16565     722.1298     671.9219
   1424.15039     722.7659     671.6314   1424.15039     722.7659     671.6314
   1424.13513     723.3452     671.6694   1424.13513     723.3452     671.6694
   1424.11987     723.6411     672.1364   1424.11987     723.6411     672.1364
   1424.10461     721.7282     672.9019   1424.10461     721.7282     672.9019
   1424.08936     723.6074     673.9377   1424.08936     723.6074     673.9377
   1424.07410     722.0444     672.6143   1424.07410     722.0444     672.6143
   1424.05884     722.3123     673.2246   1424.05884     722.3123     673.2246
   1424.04358     721.8387     673.7083   1424.04358     721.8387     673.7083
   1424.02832     721.6048     673.8124   1424.02832     721.6048     673.8124
   1424.01306     720.5374     674.7730   1424.01306     720.5374     674.7730
   1423.99780     720.7411     674.2173   1423.99780     720.7411     674.2173
   1423.98254     721.2151     675.2753   1423.98254     721.2151     675.2753
   1423.96729     721.0230     674.8329   1423.96729     721.0230     674.8329
   1423.95203     720.1015     675.3727   1423.95203     720.1015     675.3727
   1423.93677     718.8299     674.2691   1423.93677     718.8299     674.2691
   1423.92151     719.8452     674.3288   1423.92151     719.8452     674.3288
   1423.90625     719.8763     673.9343   1423.90625     719.8763     673.9343
   1423.89099     719.2345     673.5146   1423.89099     719.2345     673.5146
   1423.87573     718.0952     673.7337   1423.87573     718.0952     673.7337
   1423.86047     719.4263     674.3312   1423.86047     719.4263     674.3312
   1423.84521     719.4117     674.6423   1423.84521     719.4117     674.6423
   1423.82996     718.4811     673.7526   1423.82996     718.4811     673.7526
   1423.81470     717.9656     674.1556   1423.81470     717.9656     674.1556
   1423.79944     718.5142     674.4575   1423.79944     718.5142     674.4575
   1423.78418     718.3062     673.0348   1423.78418     718.3062     673.0348
   1423.76892     717.8893     672.6990   1423.76892     717.8893     672.6990
   1423.75366     716.8716     673.0450   1423.75366     716.8716     673.0450
   1423.73840     717.1204     672.9003   1423.73840     717.1204     672.9003
   1423.72314     717.2530     671.9377   1423.72314     717.2530     671.9377
   1423.70789     716.8265     673.7541   1423.70789     716.8265     673.7541
   1423.69263     715.2027     671.7433   1423.69263     715.2027     671.7433
   1423.67737     715.8870     671.2356   1423.67737     715.8870     671.2356
   1423.66211     715.0355     672.4189   1423.66211     715.0355     672.4189
   1423.64685     715.1030     672.0665   1423.64685     715.1030     672.0665
   1423.63159     715.6185     670.7861   1423.63159     715.6185     670.7861
   1423.61633     714.2386     670.8829   1423.61633     714.2386     670.8829
   1423.60107     715.8901     670.7120   1423.60107     715.8901     670.7120
   1423.58582     713.9617     669.2695   1423.58582     713.9617     669.2695
   1423.57056     713.5912     669.4062   1423.57056     713.5912     669.4062
   1423.55530     713.7735     668.2306   1423.55530     713.7735     668.2306
   1423.54004     713.2656     668.6996   1423.54004     713.2656     668.6996
   1423.52478     713.6510     667.7845   1423.52478     713.6510     667.7845
   1423.50952     712.8947     667.1937   1423.50952     712.8947     667.1937
   1423.49426     712.1370     666.2913   1423.49426     712.1370     666.2913
   1423.47900     712.6085     666.7931   1423.47900     712.6085     666.7931
   1423.46375     712.0258     666.3414   1423.46375     712.0258     666.3414
   1423.44849     711.2775     666.2925   1423.44849     711.2775     666.2925
   1423.43323     710.9832     664.3056   1423.43323     710.9832     664.3056
   1423.41797     711.2469     663.8317   1423.41797     711.2469     663.8317
   1423.40271     711.4044     663.5012   1423.40271     711.4044     663.5012
   1423.38745     710.3496     663.1448   1423.38745     710.3496     663.1448
   1423.37219     710.7441     663.5377   1423.37219     710.7441     663.5377
   1423.35693     710.4266     661.5131   1423.35693     710.4266     661.5131
   1423.34167     710.0061     661.1434   1423.34167     710.0061     661.1434
   1423.32642     709.1291     659.5577   1423.32642     709.1291     659.5577
   1423.31116     708.7184     660.0744   1423.31116     708.7184     660.0744
   1423.29590     709.1904     658.1913   1423.29590     709.1904     658.1913
   1423.28064     708.9520     658.3129   1423.28064     708.9520     658.3129
   1423.26538     708.5956     657.3682   1423.26538     708.5956     657.3682
   1423.25012     708.0493     656.3547   1423.25012     708.0493     656.3547
   1423.23486     707.1318     654.9551   1423.23486     707.1318     654.9551
   1423.21960     707.5671     655.5454   1423.21960     707.5671     655.5454
   1423.20435     706.6672     652.9435   1423.20435     706.6672     652.9435
   1423.18909     707.5706     653.3780   1423.18909     707.5706     653.3780
   1423.17383     707.4410     651.4356   1423.17383     707.4410     651.4356
   1423.15857     706.2202     651.2233   1423.15857     706.2202     651.2233
   1423.14331     707.3947     651.5021   1423.14331     707.3947     651.5021
   1423.12805     705.3097     649.0602   1423.12805     705.3097     649.0602
   1423.11279     706.2944     648.4557   1423.11279     706.2944     648.4557
   1423.09753     704.7735     647.9684   1423.09753     704.7735     647.9684
   1423.08228     706.8818     646.7839   1423.08228     706.8818     646.7839
   1423.06702     704.3221     645.1298   1423.06702     704.3221     645.1298
   1423.05176     703.2849     644.4265   1423.05176     703.2849     644.4265
   1423.03650     705.7641     644.4758   1423.03650     705.7641     644.4758
   1423.02124     704.0099     643.4832   1423.02124     704.0099     643.4832
   1423.00598     702.7863     641.0743   1423.00598     702.7863     641.0743
   1422.99072     702.6029     639.7893   1422.99072     702.6029     639.7893
   1422.97546     702.1544     639.0083   1422.97546     702.1544     639.0083
   1422.96021     703.0156     637.2914   1422.96021     703.0156     637.2914
   1422.94495     703.2994     636.8508   1422.94495     703.2994     636.8508
   1422.92969     702.8664     635.1060   1422.92969     702.8664     635.1060
   1422.91443     701.6931     634.9280   1422.91443     701.6931     634.9280
   1422.89917     701.2868     634.0826   1422.89917     701.2868     634.0826
   1422.88391     701.3624     632.8134   1422.88391     701.3624     632.8134
   1422.86865     701.1733     631.8123   1422.86865     701.1733     631.8123
   1422.85339     700.1382     630.5895   1422.85339     700.1382     630.5895
   1422.83813     700.8061     629.7240   1422.83813     700.8061     629.7240
   1422.82288     700.0721     628.5062   1422.82288     700.0721     628.5062
   1422.80762     700.9619     626.1448   1422.80762     700.9619     626.1448
   1422.79236     700.1533     625.2842   1422.79236     700.1533     625.2842
   1422.77710     700.2269     625.1318   1422.77710     700.2269     625.1318
   1422.76184     698.9996     622.9839   1422.76184     698.9996     622.9839
   1422.74658     698.6997     622.2907   1422.74658     698.6997     622.2907
   1422.73132     699.2628     620.4398   1422.73132     699.2628     620.4398
   1422.71606     698.8975     619.1292   1422.71606     698.8975     619.1292
   1422.70081     697.5530     617.7022   1422.70081     697.5530     617.7022
   1422.68555     699.1431     617.8848   1422.68555     699.1431     617.8848
   1422.67029     697.2537     615.1287   1422.67029     697.2537     615.1287
   1422.65503     696.6440     614.3655   1422.65503     696.6440     614.3655
   1422.63977     697.0058     612.9791   1422.63977     697.0058     612.9791
   1422.62451     696.6514     611.9396   1422.62451     696.6514     611.9396
   1422.60925     696.7847     610.6088   1422.60925     696.7847     610.6088
   1422.59399     696.2808     608.9253   1422.59399     696.2808     608.9253
   1422.57874     696.4778     607.1614   1422.57874     696.4778     607.1614
   1422.56348     695.6841     606.8320   1422.56348     695.6841     606.8320
   1422.54822     696.5324     605.1938   1422.54822     696.5324     605.1938
   1422.53296     697.1875     604.4469   1422.53296     697.1875     604.4469
   1422.51770     695.3427     602.2635   1422.51770     695.3427     602.2635
   1422.50244     694.9606     601.0079   1422.50244     694.9606     601.0079
   1422.48718     694.4487     599.6352   1422.48718     694.4487     599.6352
   1422.47192     694.1758     598.6483   1422.47192     694.1758     598.6483
   1422.45667     693.1320     597.5131   1422.45667     693.1320     597.5131
   1422.44141     694.7764     596.2349   1422.44141     694.7764     596.2349
   1422.42615     693.2286     594.4073   1422.42615     693.2286     594.4073
   1422.41089     693.4588     592.6678   1422.41089     693.4588     592.6678
   1422.39563     693.7677     591.6074   1422.39563     693.7677     591.6074
   1422.38037     692.7557     590.2994   1422.38037     692.7557     590.2994
   1422.36511     692.6675     588.9741   1422.36511     692.6675     588.9741
   1422.34985     693.3646     588.0380   1422.34985     693.3646     588.0380
   1422.33459     691.8503     586.4260   1422.33459     691.8503     586.4260
   1422.31934     692.2657     585.2744   1422.31934     692.2657     585.2744
   1422.30408     691.8820     583.3239   1422.30408     691.8820     583.3239
   1422.28882     691.3989     582.0696   1422.28882     691.3989     582.0696
   1422.27356     690.7642     580.4359   1422.27356     690.7642     580.4359
   1422.25830     691.5601     578.9635   1422.25830     691.5601     578.9635
   1422.24304     690.2634     578.7325   1422.24304     690.2634     578.7325
   1422.22778     691.5400     576.5510   1422.22778     691.5400     576.5510
   1422.21252     691.3618     576.0809   1422.21252     691.3618     576.0809
   1422.19727     690.8998     574.1893   1422.19727     690.8998     574.1893
   1422.18201     690.1027     573.1867   1422.18201     690.1027     573.1867
   1422.16675     689.2580     571.6533   1422.16675     689.2580     571.6533
   1422.15149     689.4776     569.2258   1422.15149     689.4776     569.2258
   1422.13623     689.1711     568.4704   1422.13623     689.1711     568.4704
   1422.12097     689.8876     567.1885   1422.12097     689.8876     567.1885
   1422.10571     689.0775     565.3177   1422.10571     689.0775     565.3177
   1422.09045     688.2255     564.4232   1422.09045     688.2255     564.4232
   1422.07520     688.9121     562.1204   1422.07520     688.9121     562.1204
   1422.05994     687.8775     562.3803   1422.05994     687.8775     562.3803
   1422.04468     688.2579     560.2025   1422.04468     688.2579     560.2025
   1422.02942     687.7817     558.7950   1422.02942     687.7817     558.7950
   1422.01416     686.5961     557.3553   1422.01416     686.5961     557.3553
   1421.99890     687.1208     555.8095   1421.99890     687.1208     555.8095
   1421.98364     686.8116     555.2573   1421.98364     686.8116     555.2573
   1421.96838     687.4402     552.5264   1421.96838     687.4402     552.5264
   1421.95312     687.4658     551.9598   1421.95312     687.4658     551.9598
   1421.93787     685.8309     550.0035   1421.93787     685.8309     550.0035
   1421.92261     685.3884     549.0817   1421.92261     685.3884     549.0817
   1421.90735     685.1837     547.5761   1421.90735     685.1837     547.5761
   1421.89209     686.2192     546.1044   1421.89209     686.2192     546.1044
   1421.87683     685.6385     544.2910   1421.87683     685.6385     544.2910
   1421.86157     686.0737     542.9055   1421.86157     686.0737     542.9055
   1421.84631     685.3597     541.9241   1421.84631     685.3597     541.9241
   1421.83105     684.8890     540.3515   1421.83105     684.8890     540.3515
   1421.81580     685.3269     539.1445   1421.81580     685.3269     539.1445
   1421.80054     683.6437     537.2466   1421.80054     683.6437     537.2466
   1421.78528     684.9215     536.7866   1421.78528     684.9215     536.7866
   1421.77002     683.7349     535.2838   1421.77002     683.7349     535.2838
   1421.75476     683.2297     534.2739   1421.75476     683.2297     534.2739
   1421.73950     682.4401     532.2691   1421.73950     682.4401     532.2691
   1421.72424     682.9404     532.0027   1421.72424     682.9404     532.0027
   1421.70898     681.6756     529.7503   1421.70898     681.6756     529.7503
   1421.69373     681.8329     528.9146   1421.69373     681.8329     528.9146
   1421.67847     682.0656     527.5159   1421.67847     682.0656     527.5159
   1421.66321     682.6909     525.5043   1421.66321     682.6909     525.5043
   1421.64795     681.2888     525.1027   1421.64795     681.2888     525.1027
   1421.63269     681.4730     522.6766   1421.63269     681.4730     522.6766
   1421.61743     681.4301     522.2285   1421.61743     681.4301     522.2285
   1421.60217     681.1677     520.1528   1421.60217     681.1677     520.1528
   1421.58691     680.9190     519.3829   1421.58691     680.9190     519.3829
   1421.57166     680.0856     517.7504   1421.57166     680.0856     517.7504
   1421.55640     679.6125     516.9237   1421.55640     679.6125     516.9237
   1421.54114     680.0690     515.6368   1421.54114     680.0690     515.6368
   1421.52588     680.0209     514.3444   1421.52588     680.0209     514.3444
   1421.51062     679.8642     512.8548   1421.51062     679.8642     512.8548
   1421.49536     679.2156     511.7549   1421.49536     679.2156     511.7549
   1421.48010     677.9865     511.1257   1421.48010     677.9865     511.1257
   1421.46484     679.3011     509.0955   1421.46484     679.3011     509.0955
   1421.44958     678.4565     507.8348   1421.44958     678.4565     507.8348
   1421.43433     678.5868     506.3201   1421.43433     678.5868     506.3201
   1421.41907     678.3912     504.7863   1421.41907     678.3912     504.7863
   1421.40381     679.2102     504.2458   1421.40381     679.2102     504.2458
   1421.38855     677.3882     502.6747   1421.38855     677.3882     502.6747
   1421.37329     676.9025     501.6794   1421.37329     676.9025     501.6794
   1421.35803     676.6520     499.6894   1421.35803     676.6520     499.6894
   1421.34277     677.7843     499.3071   1421.34277     677.7843     499.3071
   1421.32751     678.3252     498.3781   1421.32751     678.3252     498.3781
   1421.31226     676.8820     497.1737   1421.31226     676.8820     497.1737
   1421.29700     676.8233     496.8164   1421.29700     676.8233     496.8164
   1421.28174     675.2825     494.0256   1421.28174     675.2825     494.0256
   1421.26648     675.0552     492.9186   1421.26648     675.0552     492.9186
   1421.25122     674.6805     491.9767   1421.25122     674.6805     491.9767
   1421.23596     674.7892     490.4338   1421.23596     674.7892     490.4338
   1421.22070     674.2565     488.7922   1421.22070     674.2565     488.7922
   1421.20544     674.7242     488.4257   1421.20544     674.7242     488.4257
   1421.19019     674.5184     487.1956   1421.19019     674.5184     487.1956
   1421.17493     673.1144     485.6742   1421.17493     673.1144     485.6742
   1421.15967     673.4849     484.4585   1421.15967     673.4849     484.4585
   1421.14441     673.8006     483.3329   1421.14441     673.8006     483.3329
   1421.12915     672.6999     481.7236   1421.12915     672.6999     481.7236
   1421.11389     672.8280     480.9337   1421.11389     672.8280     480.9337
   1421.09863     672.6592     480.2602   1421.09863     672.6592     480.2602
   1421.08337     673.4495     478.2635   1421.08337     673.4495     478.2635
   1421.06812     671.8619     477.4446   1421.06812     671.8619     477.4446
   1421.05286     672.3669     477.2819   1421.05286     672.3669     477.2819
   1421.03760     671.7378     475.8120   1421.03760     671.7378     475.8120
   1421.02234     671.3989     474.0981   1421.02234     671.3989     474.0981
   1421.00708     671.5193     473.9646   1421.00708     671.5193     473.9646
   1420.99182     671.1971     472.1317   1420.99182     671.1971     472.1317
   1420.97656     670.0043     471.4286   1420.97656     670.0043     471.4286
   1420.96130     670.3659     470.4202   1420.96130     670.3659     470.4202
   1420.94604     669.3005     469.1089   1420.94604     669.3005     469.1089
   1420.93079     669.5370     467.2217   1420.93079     669.5370     467.2217
   1420.91553     669.8911     467.2108   1420.91553     669.8911     467.2108
   1420.90027     670.2837     466.5157   1420.90027     670.2837     466.5157
   1420.88501     669.5826     465.8233   1420.88501     669.5826     465.8233
   1420.86975     668.7976     464.4375   1420.86975     668.7976     464.4375
   1420.85449     668.7639     463.3231   1420.85449     668.7639     463.3231
   1420.83923     669.2530     462.3116   1420.83923     669.2530     462.3116
   1420.82397     668.1631     461.6435   1420.82397     668.1631     461.6435
   1420.80872     669.1107     460.7495   1420.80872     669.1107     460.7495
   1420.79346     668.4185     459.2358   1420.79346     668.4185     459.2358
   1420.77820     668.8799     459.2342   1420.77820     668.8799     459.2342
   1420.76294     667.9335     457.9473   1420.76294     667.9335     457.9473
   1420.74768     668.6731     457.0103   1420.74768     668.6731     457.0103
   1420.73242     668.8449     456.3282   1420.73242     668.8449     456.3282
   1420.71716     669.8693     455.5793   1420.71716     669.8693     455.5793
   1420.70190     668.8189     454.3022   1420.70190     668.8189     454.3022
   1420.68665     668.3720     453.3985   1420.68665     668.3720     453.3985
   1420.67139     668.6376     452.8254   1420.67139     668.6376     452.8254
   1420.65613     667.6293     451.2369   1420.65613     667.6293     451.2369
   1420.64087     668.3369     450.2838   1420.64087     668.3369     450.2838
   1420.62561     667.7422     449.0388   1420.62561     667.7422     449.0388
   1420.61035     667.6432     448.9189   1420.61035     667.6432     448.9189
   1420.59509     666.9600     448.2689   1420.59509     666.9600     448.2689
   1420.57983     667.9908     447.4670   1420.57983     667.9908     447.4670
   1420.56458     669.5746     447.7585   1420.56458     669.5746     447.7585
   1420.54932     670.0488     448.1776   1420.54932     670.0488     448.1776
   1420.53406     672.5117     448.4746   1420.53406     672.5117     448.4746
   1420.51880     672.2103     447.9795   1420.51880     672.2103     447.9795
   1420.50354     672.6594     447.2411   1420.50354     672.6594     447.2411
   1420.48828     672.1937     447.2155   1420.48828     672.1937     447.2155
   1420.47302     670.4307     445.9720   1420.47302     670.4307     445.9720
   1420.45776     671.3490     444.1064   1420.45776     671.3490     444.1064
   1420.44250     669.6299     442.0059   1420.44250     669.6299     442.0059
   1420.42725     668.4188     441.7511   1420.42725     668.4188     441.7511
   1420.41199     668.9459     440.7974   1420.41199     668.9459     440.7974
   1420.39673     670.0328     439.8541   1420.39673     670.0328     439.8541
   1420.38147     669.0527     439.2994   1420.38147     669.0527     439.2994
   1420.36621     668.8146     439.3316   1420.36621     668.8146     439.3316
   1420.35095     670.0737     438.9129   1420.35095     670.0737     438.9129
   1420.33569     671.4991     439.4930   1420.33569     671.4991     439.4930
   1420.32043     673.5674     440.0276   1420.32043     673.5674     440.0276
   1420.30518     678.7032     442.3243   1420.30518     678.7032     442.3243
   1420.28992     685.0370     445.9951   1420.28992     685.0370     445.9951
   1420.27466     698.6416     453.7451   1420.27466     698.6416     453.7451
   1420.25940     728.4276     471.6851   1420.25940     728.4276     471.6851
   1420.24414     805.2787     518.0703   1420.24414     805.2787     518.0703
   1420.22888    1051.2377     672.4717   1420.22888    1051.2377     672.4717
   1420.21362    1370.9253     869.7631   1420.21362    1370.9253     869.7631
   1420.19836    1279.0447     811.4905   1420.19836    1279.0447     811.4905
   1420.18311    1145.1827     726.3577   1420.18311    1145.1827     726.3577
   1420.16785    1259.7944     797.9258   1420.16785    1259.7944     797.9258
   1420.15259    1545.8566     972.7992   1420.15259    1545.8566     972.7992
   1420.13733    1763.4541    1106.9526   1420.13733    1763.4541    1106.9526
   1420.12207    1511.2809     950.7054   1420.12207    1511.2809     950.7054
   1420.10681    1186.4155     747.1558   1420.10681    1186.4155     747.1558
   1420.09155    1087.3765     684.7922   1420.09155    1087.3765     684.7922
   1420.07629    1083.2047     681.1401   1420.07629    1083.2047     681.1401
   1420.06104    1235.8600     774.0850   1420.06104    1235.8600     774.0850
   1420.04578    1392.5780     868.6879   1420.04578    1392.5780     868.6879
   1420.03052    1345.4812     840.7834   1420.03052    1345.4812     840.7834
   1420.01526    1298.0934     810.6845   1420.01526    1298.0934     810.6845
   1420.00000    1346.8981     840.3378   1420.00000    1346.8981     840.3378
   1419.98474    1395.7031     869.9911   1419.98474    1395.7031     869.9911
   1419.96948    1347.2140     835.9248   1419.96948    1347.2140     835.9248
   1419.95422    1222.3256     759.3706   1419.95422    1222.3256     759.3706
   1419.93896    1086.3335     676.8873   1419.93896    1086.3335     676.8873
   1419.92371    1137.2588     707.9144   1419.92371    1137.2588     707.9144
   1419.90845    1320.4343     816.2644   1419.90845    1320.4343     816.2644
   1419.89319    1365.4221     843.4088   1419.89319    1365.4221     843.4088
   1419.87793    1208.8131     747.8856   1419.87793    1208.8131     747.8856
   1419.86267    1093.9067     679.6071   1419.86267    1093.9067     679.6071
   1419.84741    1016.3024     631.8810   1419.84741    1016.3024     631.8810
   1419.83215     909.8629     565.0080   1419.83215     909.8629     565.0080
   1419.81689     821.9306     511.7979   1419.81689     821.9306     511.7979
   1419.80164     770.7006     479.8020   1419.80164     770.7006     479.8020
   1419.78638     738.9508     460.7028   1419.78638     738.9508     460.7028
   1419.77112     718.2017     447.9077   1419.77112     718.2017     447.9077
   1419.75586     705.3511     439.5436   1419.75586     705.3511     439.5436
   1419.74060     694.1629     432.6050   1419.74060     694.1629     432.6050
   1419.72534     686.1589     427.7937   1419.72534     686.1589     427.7937
   1419.71008     678.6638     422.8079   1419.71008     678.6638     422.8079
   1419.69482     673.8024     418.7806   1419.69482     673.8024     418.7806
   1419.67957     668.0530     416.6068   1419.67957     668.0530     416.6068
   1419.66431     666.8828     413.6906   1419.66431     666.8828     413.6906
   1419.64905     664.9094     412.7848   1419.64905     664.9094     412.7848
   1419.63379     664.3536     412.2418   1419.63379     664.3536     412.2418
   1419.61853     664.2759     411.1378   1419.61853     664.2759     411.1378
   1419.60327     661.9047     410.4874   1419.60327     661.9047     410.4874
   1419.58801     662.0607     410.5983   1419.58801     662.0607     410.5983
   1419.57275     662.2580     410.0374   1419.57275     662.2580     410.0374
   1419.55750     661.8222     409.7759   1419.55750     661.8222     409.7759
   1419.54224     662.7867     409.0710   1419.54224     662.7867     409.0710
   1419.52698     662.6934     408.6887   1419.52698     662.6934     408.6887
   1419.51172     663.0988     408.8463   1419.51172     663.0988     408.8463
   1419.49646     663.6002     408.6057   1419.49646     663.6002     408.6057
   1419.48120     663.7982     408.7597   1419.48120     663.7982     408.7597
   1419.46594     663.2618     408.4088   1419.46594     663.2618     408.4088
   1419.45068     664.3714     407.6992   1419.45068     664.3714     407.6992
   1419.43542     663.9936     408.2390   1419.43542     663.9936     408.2390
   1419.42017     665.3907     407.9280   1419.42017     665.3907     407.9280
   1419.40491     665.0600     407.8713   1419.40491     665.0600     407.8713
   1419.38965     664.6429     407.3614   1419.38965     664.6429     407.3614
   1419.37439     666.2470     407.7502   1419.37439     666.2470     407.7502
   1419.35913     666.8314     406.9938   1419.35913     666.8314     406.9938
   1419.34387     665.9876     407.1707   1419.34387     665.9876     407.1707
   1419.32861     667.3791     406.9729   1419.32861     667.3791     406.9729
   1419.31335     668.8700     407.4544   1419.31335     668.8700     407.4544
   1419.29810     668.4744     408.2584   1419.29810     668.4744     408.2584
   1419.28284     667.7307     407.5135   1419.28284     667.7307     407.5135
   1419.26758     671.1659     407.7804   1419.26758     671.1659     407.7804
   1419.25232     669.4016     407.8336   1419.25232     669.4016     407.8336
   1419.23706     670.0043     407.4288   1419.23706     670.0043     407.4288
   1419.22180     669.5579     407.7995   1419.22180     669.5579     407.7995
   1419.20654     670.0405     407.4629   1419.20654     670.0405     407.4629
   1419.19128     671.2249     407.4819   1419.19128     671.2249     407.4819
   1419.17603     671.1673     407.5903   1419.17603     671.1673     407.5903
   1419.16077     671.6408     408.1671   1419.16077     671.6408     408.1671
   1419.14551     672.7592     408.6214   1419.14551     672.7592     408.6214
   1419.13025     672.5410     408.0876   1419.13025     672.5410     408.0876
   1419.11499     674.5810     408.6965   1419.11499     674.5810     408.6965
   1419.09973     673.8023     408.8215   1419.09973     673.8023     408.8215
   1419.08447     674.7520     408.4987   1419.08447     674.7520     408.4987
   1419.06921     674.8216     408.6596   1419.06921     674.8216     408.6596
   1419.05396     677.3623     408.9572   1419.05396     677.3623     408.9572
   1419.03870     677.2254     409.0107   1419.03870     677.2254     409.0107
   1419.02344     677.8783     409.5165   1419.02344     677.8783     409.5165
   1419.00818     677.1923     409.5494   1419.00818     677.1923     409.5494
   1418.99292     678.6838     409.5110   1418.99292     678.6838     409.5110
   1418.97766     678.9850     409.9373   1418.97766     678.9850     409.9373
   1418.96240     679.6885     410.2948   1418.96240     679.6885     410.2948
   1418.94714     680.3787     410.4048   1418.94714     680.3787     410.4048
   1418.93188     682.8096     410.4919   1418.93188     682.8096     410.4919
   1418.91663     681.7071     411.7735   1418.91663     681.7071     411.7735
   1418.90137     681.5200     411.6280   1418.90137     681.5200     411.6280
   1418.88611     683.0579     411.5701   1418.88611     683.0579     411.5701
   1418.87085     684.7516     411.7037   1418.87085     684.7516     411.7037
   1418.85559     684.1205     411.5627   1418.85559     684.1205     411.5627
   1418.84033     685.6760     412.4201   1418.84033     685.6760     412.4201
   1418.82507     686.7356     412.6393   1418.82507     686.7356     412.6393
   1418.80981     685.6777     413.2310   1418.80981     685.6777     413.2310
   1418.79456     688.0453     413.4770   1418.79456     688.0453     413.4770
   1418.77930     687.1511     413.8845   1418.77930     687.1511     413.8845
   1418.76404     689.1337     414.0626   1418.76404     689.1337     414.0626
   1418.74878     690.9306     414.4748   1418.74878     690.9306     414.4748
   1418.73352     689.9579     413.4411   1418.73352     689.9579     413.4411
   1418.71826     691.7802     414.9171   1418.71826     691.7802     414.9171
   1418.70300     693.1730     414.8288   1418.70300     693.1730     414.8288
   1418.68774     692.3663     415.6899   1418.68774     692.3663     415.6899
   1418.67249     693.5804     415.5441   1418.67249     693.5804     415.5441
   1418.65723     695.5233     416.6813   1418.65723     695.5233     416.6813
   1418.64197     695.8368     416.8715   1418.64197     695.8368     416.8715
   1418.62671     696.1691     417.1860   1418.62671     696.1691     417.1860
   1418.61145     698.1022     417.4434   1418.61145     698.1022     417.4434
   1418.59619     697.8715     417.8030   1418.59619     697.8715     417.8030
   1418.58093     700.0280     418.3688   1418.58093     700.0280     418.3688
   1418.56567     700.1830     418.9904   1418.56567     700.1830     418.9904
   1418.55042     701.0785     420.0353   1418.55042     701.0785     420.0353
   1418.53516     702.0973     419.9228   1418.53516     702.0973     419.9228
   1418.51990     702.7419     420.2548   1418.51990     702.7419     420.2548
   1418.50464     703.9014     420.8865   1418.50464     703.9014     420.8865
   1418.48938     705.3544     420.6747   1418.48938     705.3544     420.6747
   1418.47412     707.2117     422.2383   1418.47412     707.2117     422.2383
   1418.45886     707.6245     422.3711   1418.45886     707.6245     422.3711
   1418.44360     707.7149     422.7121   1418.44360     707.7149     422.7121
   1418.42834     710.0112     422.5742   1418.42834     710.0112     422.5742
   1418.41309     710.0331     423.5576   1418.41309     710.0331     423.5576
   1418.39783     711.2274     424.5327   1418.39783     711.2274     424.5327
   1418.38257     712.7650     424.2861   1418.38257     712.7650     424.2861
   1418.36731     712.6887     425.1086   1418.36731     712.6887     425.1086
   1418.35205     714.7884     425.7958   1418.35205     714.7884     425.7958
   1418.33679     715.2955     426.1634   1418.33679     715.2955     426.1634
   1418.32153     716.6732     427.4606   1418.32153     716.6732     427.4606
   1418.30627     717.1961     427.1365   1418.30627     717.1961     427.1365
   1418.29102     718.2533     427.9332   1418.29102     718.2533     427.9332
   1418.27576     720.4858     428.8687   1418.27576     720.4858     428.8687
   1418.26050     721.6753     430.3310   1418.26050     721.6753     430.3310
   1418.24524     721.7515     429.3690   1418.24524     721.7515     429.3690
   1418.22998     723.2827     430.1803   1418.22998     723.2827     430.1803
   1418.21472     723.4805     431.1575   1418.21472     723.4805     431.1575
   1418.19946     725.5684     432.0967   1418.19946     725.5684     432.0967
   1418.18420     725.7126     432.2988   1418.18420     725.7126     432.2988
   1418.16895     726.5487     432.9100   1418.16895     726.5487     432.9100
   1418.15369     728.6096     433.1124   1418.15369     728.6096     433.1124
   1418.13843     729.2209     434.7979   1418.13843     729.2209     434.7979
   1418.12317     731.9620     434.9089   1418.12317     731.9620     434.9089
   1418.10791     732.4849     435.2977   1418.10791     732.4849     435.2977
   1418.09265     732.9843     435.5836   1418.09265     732.9843     435.5836
   1418.07739     733.8412     436.0753   1418.07739     733.8412     436.0753
   1418.06213     735.7896     437.0026   1418.06213     735.7896     437.0026
   1418.04688     737.9798     437.0722   1418.04688     737.9798     437.0722
   1418.03162     738.4267     438.4152   1418.03162     738.4267     438.4152
   1418.01636     739.2139     438.8065   1418.01636     739.2139     438.8065
   1418.00110     740.4476     439.6330   1418.00110     740.4476     439.6330
   1417.98584     741.9787     439.6013   1417.98584     741.9787     439.6013
   1417.97058     742.7958     441.3822   1417.97058     742.7958     441.3822
   1417.95532     744.5446     442.3293   1417.95532     744.5446     442.3293
   1417.94006     745.0283     442.3495   1417.94006     745.0283     442.3495
   1417.92480     746.2371     442.9985   1417.92480     746.2371     442.9985
   1417.90955     748.6899     443.1789   1417.90955     748.6899     443.1789
   1417.89429     749.1042     443.6231   1417.89429     749.1042     443.6231
   1417.87903     748.8784     444.7681   1417.87903     748.8784     444.7681
   1417.86377     750.8651     445.7239   1417.86377     750.8651     445.7239
   1417.84851     752.5894     446.0377   1417.84851     752.5894     446.0377
   1417.83325     754.6920     447.1353   1417.83325     754.6920     447.1353
   1417.81799     755.1833     447.0006   1417.81799     755.1833     447.0006
   1417.80273     756.5225     448.2210   1417.80273     756.5225     448.2210
   1417.78748     757.8888     448.4604   1417.78748     757.8888     448.4604
   1417.77222     757.6907     449.0156   1417.77222     757.6907     449.0156
   1417.75696     762.2097     450.5359   1417.75696     762.2097     450.5359
   1417.74170     761.1839     451.4927   1417.74170     761.1839     451.4927
   1417.72644     763.5542     451.9542   1417.72644     763.5542     451.9542
   1417.71118     765.1773     451.5195   1417.71118     765.1773     451.5195
   1417.69592     764.3961     452.5020   1417.69592     764.3961     452.5020
   1417.68066     766.9244     453.1107   1417.68066     766.9244     453.1107
   1417.66541     768.2040     454.3108   1417.66541     768.2040     454.3108
   1417.65015     769.0969     454.7654   1417.65015     769.0969     454.7654
   1417.63489     769.7287     454.4947   1417.63489     769.7287     454.4947
   1417.61963     772.1841     456.1995   1417.61963     772.1841     456.1995
   1417.60437     773.4250     456.9022   1417.60437     773.4250     456.9022
   1417.58911     774.0070     456.8499   1417.58911     774.0070     456.8499
   1417.57385     775.9056     458.0124   1417.57385     775.9056     458.0124
   1417.55859     777.2665     458.3561   1417.55859     777.2665     458.3561
   1417.54333     777.1207     459.2166   1417.54333     777.1207     459.2166
   1417.52808     779.6801     460.5295   1417.52808     779.6801     460.5295
   1417.51282     779.9202     461.0614   1417.51282     779.9202     461.0614
   1417.49756     782.0059     461.3310   1417.49756     782.0059     461.3310
   1417.48230     782.2897     461.5765   1417.48230     782.2897     461.5765
   1417.46704     784.7228     462.5803   1417.46704     784.7228     462.5803
   1417.45178     785.1476     462.9209   1417.45178     785.1476     462.9209
   1417.43652     786.1774     464.6493   1417.43652     786.1774     464.6493
   1417.42126     787.6696     464.7353   1417.42126     787.6696     464.7353
   1417.40601     788.4010     464.9820   1417.40601     788.4010     464.9820
   1417.39075     790.2610     466.4115   1417.39075     790.2610     466.4115
   1417.37549     789.6106     466.8241   1417.37549     789.6106     466.8241
   1417.36023     792.5416     467.1820   1417.36023     792.5416     467.1820
   1417.34497     793.7657     467.0013   1417.34497     793.7657     467.0013
   1417.32971     795.0228     468.8154   1417.32971     795.0228     468.8154
   1417.31445     794.7927     468.6277   1417.31445     794.7927     468.6277
   1417.29919     796.0347     469.1226   1417.29919     796.0347     469.1226
   1417.28394     796.9671     469.8116   1417.28394     796.9671     469.8116
   1417.26868     798.4308     470.9557   1417.26868     798.4308     470.9557
   1417.25342     800.4470     471.4890   1417.25342     800.4470     471.4890
   1417.23816     800.1356     470.6592   1417.23816     800.1356     470.6592
   1417.22290     803.6337     474.1861   1417.22290     803.6337     474.1861
   1417.20764     802.6558     472.6232   1417.20764     802.6558     472.6232
   1417.19238     804.4962     474.2298   1417.19238     804.4962     474.2298
   1417.17712     804.3636     474.5698   1417.17712     804.3636     474.5698
   1417.16187     805.7753     475.6875   1417.16187     805.7753     475.6875
   1417.14661     807.1281     474.6807   1417.14661     807.1281     474.6807
   1417.13135     807.4028     476.4823   1417.13135     807.4028     476.4823
   1417.11609     808.6064     476.1223   1417.11609     808.6064     476.1223
   1417.10083     808.6870     477.2436   1417.10083     808.6870     477.2436
   1417.08557     810.9977     477.4303   1417.08557     810.9977     477.4303
   1417.07031     811.0695     477.8997   1417.07031     811.0695     477.8997
   1417.05505     811.7905     478.2778   1417.05505     811.7905     478.2778
   1417.03979     812.9284     479.1284   1417.03979     812.9284     479.1284
   1417.02454     813.0873     479.0218   1417.02454     813.0873     479.0218
   1417.00928     814.5803     480.2151   1417.00928     814.5803     480.2151
   1416.99402     814.9183     480.1514   1416.99402     814.9183     480.1514
   1416.97876     816.1263     481.0786   1416.97876     816.1263     481.0786
   1416.96350     815.7645     481.0476   1416.96350     815.7645     481.0476
   1416.94824     819.8119     481.4907   1416.94824     819.8119     481.4907
   1416.93298     819.0409     481.8599   1416.93298     819.0409     481.8599
   1416.91772     818.3111     482.6116   1416.91772     818.3111     482.6116
   1416.90247     820.0032     483.1193   1416.90247     820.0032     483.1193
   1416.88721     819.7362     482.9036   1416.88721     819.7362     482.9036
   1416.87195     821.5807     483.6996   1416.87195     821.5807     483.6996
   1416.85669     821.4991     483.8743   1416.85669     821.4991     483.8743
   1416.84143     820.5359     483.6780   1416.84143     820.5359     483.6780
   1416.82617     822.8467     484.6008   1416.82617     822.8467     484.6008
   1416.81091     824.5304     484.3654   1416.81091     824.5304     484.3654
   1416.79565     824.5756     484.6134   1416.79565     824.5756     484.6134
   1416.78040     825.2054     485.6404   1416.78040     825.2054     485.6404
   1416.76514     825.5063     486.0304   1416.76514     825.5063     486.0304
   1416.74988     825.2617     486.4065   1416.74988     825.2617     486.4065
   1416.73462     825.8868     486.0999   1416.73462     825.8868     486.0999
   1416.71936     825.3497     486.1117   1416.71936     825.3497     486.1117
   1416.70410     826.3890     486.8863   1416.70410     826.3890     486.8863
   1416.68884     828.3411     486.8107   1416.68884     828.3411     486.8107
   1416.67358     827.2996     487.2873   1416.67358     827.2996     487.2873
   1416.65833     827.9908     487.5046   1416.65833     827.9908     487.5046
   1416.64307     828.0944     487.1973   1416.64307     828.0944     487.1973
   1416.62781     827.4266     487.4742   1416.62781     827.4266     487.4742
   1416.61255     829.9174     487.9536   1416.61255     829.9174     487.9536
   1416.59729     828.0137     488.4557   1416.59729     828.0137     488.4557
   1416.58203     829.1925     488.6340   1416.58203     829.1925     488.6340
   1416.56677     829.2166     488.1588   1416.56677     829.2166     488.1588
   1416.55151     830.1193     487.8991   1416.55151     830.1193     487.8991
   1416.53625     829.3630     488.1146   1416.53625     829.3630     488.1146
   1416.52100     829.3013     488.8184   1416.52100     829.3013     488.8184
   1416.50574     829.4285     488.6778   1416.50574     829.4285     488.6778
   1416.49048     829.0714     488.7330   1416.49048     829.0714     488.7330
   1416.47522     828.3459     488.5830   1416.47522     828.3459     488.5830
   1416.45996     830.8098     488.1524   1416.45996     830.8098     488.1524
   1416.44470     828.2325     488.0018   1416.44470     828.2325     488.0018
   1416.42944     829.2983     487.4070   1416.42944     829.2983     487.4070
   1416.41418     830.2859     488.8308   1416.41418     830.2859     488.8308
   1416.39893     827.5311     488.1733   1416.39893     827.5311     488.1733
   1416.38367     828.7012     487.5612   1416.38367     828.7012     487.5612
   1416.36841     828.5659     487.9836   1416.36841     828.5659     487.9836
   1416.35315     827.8962     488.3438   1416.35315     827.8962     488.3438
   1416.33789     827.4400     487.9206   1416.33789     827.4400     487.9206
   1416.32263     826.8332     487.8273   1416.32263     826.8332     487.8273
   1416.30737     827.8679     487.7997   1416.30737     827.8679     487.7997
   1416.29211     828.9882     488.3522   1416.29211     828.9882     488.3522
   1416.27686     827.3038     487.5446   1416.27686     827.3038     487.5446
   1416.26160     826.7985     487.5017   1416.26160     826.7985     487.5017
   1416.24634     828.0040     486.0847   1416.24634     828.0040     486.0847
   1416.23108     825.8292     487.1062   1416.23108     825.8292     487.1062
   1416.21582     826.3013     486.9987   1416.21582     826.3013     486.9987
   1416.20056     825.6430     487.1387   1416.20056     825.6430     487.1387
   1416.18530     825.5073     486.5243   1416.18530     825.5073     486.5243
   1416.17004     823.7662     486.9299   1416.17004     823.7662     486.9299
   1416.15479     824.5129     486.0769   1416.15479     824.5129     486.0769
   1416.13953     824.3704     485.9385   1416.13953     824.3704     485.9385
   1416.12427     822.3872     485.8849   1416.12427     822.3872     485.8849
   1416.10901     823.6282     485.7025   1416.10901     823.6282     485.7025
   1416.09375     822.4328     486.0416   1416.09375     822.4328     486.0416
   1416.07849     822.0006     485.5677   1416.07849     822.0006     485.5677
   1416.06323     822.0797     485.6442   1416.06323     822.0797     485.6442
   1416.04797     820.4354     485.1568   1416.04797     820.4354     485.1568
   1416.03271     819.0199     485.9214   1416.03271     819.0199     485.9214
   1416.01746     819.7107     484.4571   1416.01746     819.7107     484.4571
   1416.00220     819.2574     483.4749   1416.00220     819.2574     483.4749
   1415.98694     819.4356     484.8014   1415.98694     819.4356     484.8014
   1415.97168     816.3738     483.9311   1415.97168     816.3738     483.9311
   1415.95642     817.1273     483.5938   1415.95642     817.1273     483.5938
   1415.94116     816.5002     483.6657   1415.94116     816.5002     483.6657
   1415.92590     816.3298     484.2852   1415.92590     816.3298     484.2852
   1415.91064     814.3839     483.7434   1415.91064     814.3839     483.7434
   1415.89539     814.3663     482.8042   1415.89539     814.3663     482.8042
   1415.88013     813.7078     482.5250   1415.88013     813.7078     482.5250
   1415.86487     811.5068     482.6057   1415.86487     811.5068     482.6057
   1415.84961     811.7450     482.6347   1415.84961     811.7450     482.6347
   1415.83435     811.2969     482.3910   1415.83435     811.2969     482.3910
   1415.81909     810.7257     481.6195   1415.81909     810.7257     481.6195
   1415.80383     809.5610     481.7275   1415.80383     809.5610     481.7275
   1415.78857     809.9009     481.1935   1415.78857     809.9009     481.1935
   1415.77332     807.4781     481.0334   1415.77332     807.4781     481.0334
   1415.75806     807.9810     480.8552   1415.75806     807.9810     480.8552
   1415.74280     806.7213     480.6395   1415.74280     806.7213     480.6395
   1415.72754     806.3608     480.4796   1415.72754     806.3608     480.4796
   1415.71228     805.3835     480.1682   1415.71228     805.3835     480.1682
   1415.69702     804.3019     480.7190   1415.69702     804.3019     480.7190
   1415.68176     802.0950     479.4471   1415.68176     802.0950     479.4471
   1415.66650     800.9423     480.0166   1415.66650     800.9423     480.0166
   1415.65125     801.9130     479.4111   1415.65125     801.9130     479.4111
   1415.63599     798.7027     478.6131   1415.63599     798.7027     478.6131
   1415.62073     798.1378     478.7959   1415.62073     798.1378     478.7959
   1415.60547     797.8212     478.2500   1415.60547     797.8212     478.2500
   1415.59021     796.6760     478.0115   1415.59021     796.6760     478.0115
   1415.57495     794.9467     478.6607   1415.57495     794.9467     478.6607
   1415.55969     793.8032     477.5571   1415.55969     793.8032     477.5571
   1415.54443     793.2304     477.3086   1415.54443     793.2304     477.3086
   1415.52917     792.7359     477.2565   1415.52917     792.7359     477.2565
   1415.51392     791.6889     476.8418   1415.51392     791.6889     476.8418
   1415.49866     790.0334     476.7429   1415.49866     790.0334     476.7429
   1415.48340     790.3315     476.0240   1415.48340     790.3315     476.0240
   1415.46814     788.5177     475.0285   1415.46814     788.5177     475.0285
   1415.45288     788.6425     476.1683   1415.45288     788.6425     476.1683
   1415.43762     785.3918     475.4849   1415.43762     785.3918     475.4849
   1415.42236     785.2408     474.2303   1415.42236     785.2408     474.2303
   1415.40710     783.4166     473.7914   1415.40710     783.4166     473.7914
   1415.39185     781.7277     474.2426   1415.39185     781.7277     474.2426
   1415.37659     780.6341     473.3519   1415.37659     780.6341     473.3519
   1415.36133     779.9453     473.5468   1415.36133     779.9453     473.5468
   1415.34607     779.0319     473.1016   1415.34607     779.0319     473.1016
   1415.33081     775.9856     472.9667   1415.33081     775.9856     472.9667
   1415.31555     775.6102     472.0736   1415.31555     775.6102     472.0736
   1415.30029     774.3129     471.6355   1415.30029     774.3129     471.6355
   1415.28503     772.6527     470.9487   1415.28503     772.6527     470.9487
   1415.26978     771.6799     470.9106   1415.26978     771.6799     470.9106
   1415.25452     770.3967     470.5771   1415.25452     770.3967     470.5771
   1415.23926     768.2832     470.2289   1415.23926     768.2832     470.2289
   1415.22400     767.2456     469.2533   1415.22400     767.2456     469.2533
   1415.20874     765.3370     468.8721   1415.20874     765.3370     468.8721
   1415.19348     765.0602     469.7802   1415.19348     765.0602     469.7802
   1415.17822     762.9343     469.5732   1415.17822     762.9343     469.5732
   1415.16296     760.8969     467.6392   1415.16296     760.8969     467.6392
   1415.14771     759.0129     466.8260   1415.14771     759.0129     466.8260
   1415.13245     758.5216     466.7276   1415.13245     758.5216     466.7276
   1415.11719     756.5352     466.1915   1415.11719     756.5352     466.1915
   1415.10193     755.2990     466.0295   1415.10193     755.2990     466.0295
   1415.08667     753.1278     465.8897   1415.08667     753.1278     465.8897
   1415.07141     752.1116     464.9193   1415.07141     752.1116     464.9193
   1415.05615     749.2278     464.5934   1415.05615     749.2278     464.5934
   1415.04089     749.3015     464.0586   1415.04089     749.3015     464.0586
   1415.02563     746.7745     463.5197   1415.02563     746.7745     463.5197
   1415.01038     745.5621     462.4019   1415.01038     745.5621     462.4019
   1414.99512     743.3474     461.9822   1414.99512     743.3474     461.9822
   1414.97986     743.2965     461.6893   1414.97986     743.2965     461.6893
   1414.96460     740.0483     460.7229   1414.96460     740.0483     460.7229
   1414.94934     737.6033     460.9189   1414.94934     737.6033     460.9189
   1414.93408     737.6155     460.0516   1414.93408     737.6155     460.0516
   1414.91882     733.7033     459.1888   1414.91882     733.7033     459.1888
   1414.90356     733.3776     458.2468   1414.90356     733.3776     458.2468
   1414.88831     731.0494     458.4028   1414.88831     731.0494     458.4028
   1414.87305     729.5474     457.8743   1414.87305     729.5474     457.8743
   1414.85779     727.7222     456.6761   1414.85779     727.7222     456.6761
   1414.84253     725.4102     456.4725   1414.84253     725.4102     456.4725
   1414.82727     723.4058     455.3547   1414.82727     723.4058     455.3547
   1414.81201     721.3284     455.0633   1414.81201     721.3284     455.0633
   1414.79675     719.6917     454.6065   1414.79675     719.6917     454.6065
   1414.78149     717.3643     453.9023   1414.78149     717.3643     453.9023
   1414.76624     714.7075     452.8148   1414.76624     714.7075     452.8148
   1414.75098     713.5240     452.1135   1414.75098     713.5240     452.1135
   1414.73572     710.1325     450.7327   1414.73572     710.1325     450.7327
   1414.72046     708.4688     450.8229   1414.72046     708.4688     450.8229
   1414.70520     706.4669     450.2674   1414.70520     706.4669     450.2674
   1414.68994     703.5261     449.1929   1414.68994     703.5261     449.1929
   1414.67468     702.1261     447.7421   1414.67468     702.1261     447.7421
   1414.65942     700.1131     446.9101   1414.65942     700.1131     446.9101
   1414.64417     698.4059     446.4196   1414.64417     698.4059     446.4196
   1414.62891     695.4487     446.1152   1414.62891     695.4487     446.1152
   1414.61365     692.5562     445.3058   1414.61365     692.5562     445.3058
   1414.59839     690.8568     443.7576   1414.59839     690.8568     443.7576
   1414.58313     688.2155     442.9595   1414.58313     688.2155     442.9595
   1414.56787     686.6604     442.2881   1414.56787     686.6604     442.2881
   1414.55261     683.1630     441.5662   1414.55261     683.1630     441.5662
   1414.53735     680.8211     440.2343   1414.53735     680.8211     440.2343
   1414.52209     678.2840     439.3482   1414.52209     678.2840     439.3482
   1414.50684     676.0219     438.6471   1414.50684     676.0219     438.6471
   1414.49158     673.3561     438.3604   1414.49158     673.3561     438.3604
   1414.47632     671.3816     437.5682   1414.47632     671.3816     437.5682
   1414.46106     669.7120     435.9793   1414.46106     669.7120     435.9793
   1414.44580     665.9861     434.9014   1414.44580     665.9861     434.9014
   1414.43054     663.5030     433.3245   1414.43054     663.5030     433.3245
   1414.41528     661.1839     432.3679   1414.41528     661.1839     432.3679
   1414.40002     658.8887     431.3003   1414.40002     658.8887     431.3003
   1414.38477     655.5883     431.2695   1414.38477     655.5883     431.2695
   1414.36951     653.1186     429.6753   1414.36951     653.1186     429.6753
   1414.35425     650.4341     428.4870   1414.35425     650.4341     428.4870
   1414.33899     648.1513     427.3652   1414.33899     648.1513     427.3652
   1414.32373     645.7405     427.0797   1414.32373     645.7405     427.0797
   1414.30847     641.1271     425.2356   1414.30847     641.1271     425.2356
   1414.29321     639.8655     423.6458   1414.29321     639.8655     423.6458
   1414.27795     637.0264     423.1548   1414.27795     637.0264     423.1548
   1414.26270     633.6675     422.0021   1414.26270     633.6675     422.0021
   1414.24744     631.4456     421.0501   1414.24744     631.4456     421.0501
   1414.23218     628.8174     419.5768   1414.23218     628.8174     419.5768
   1414.21692     625.8518     418.5208   1414.21692     625.8518     418.5208
   1414.20166     623.2044     417.6648   1414.20166     623.2044     417.6648
   1414.18640     620.3094     415.5549   1414.18640     620.3094     415.5549
   1414.17114     618.0946     414.4430   1414.17114     618.0946     414.4430
   1414.15588     614.7233     413.0716   1414.15588     614.7233     413.0716
   1414.14062     611.7722     412.0574   1414.14062     611.7722     412.0574
   1414.12537     608.4031     411.2505   1414.12537     608.4031     411.2505
   1414.11011     605.0345     409.6114   1414.11011     605.0345     409.6114
   1414.09485     602.9835     408.5851   1414.09485     602.9835     408.5851
   1414.07959     599.0955     406.6677   1414.07959     599.0955     406.6677
   1414.06433     597.3376     405.9508   1414.06433     597.3376     405.9508
   1414.04907     593.1125     404.0648   1414.04907     593.1125     404.0648
   1414.03381     590.7438     402.6957   1414.03381     590.7438     402.6957
   1414.01855     589.0217     402.1914   1414.01855     589.0217     402.1914
   1414.00330     610.4082     409.0415   1414.00330     610.4082     409.0415
   1413.98804     583.6946     399.9290   1413.98804     583.6946     399.9290
   1413.97278     579.8406     398.3593   1413.97278     579.8406     398.3593
   1413.95752     575.8521     396.1366   1413.95752     575.8521     396.1366
   1413.94226     573.1561     395.2013   1413.94226     573.1561     395.2013
   1413.92700     569.9303     394.0251   1413.92700     569.9303     394.0251
   1413.91174     567.0766     392.2511   1413.91174     567.0766     392.2511
   1413.89648     562.9384     390.5718   1413.89648     562.9384     390.5718
   1413.88123     560.4848     389.2365   1413.88123     560.4848     389.2365
   1413.86597     557.2366     388.1235   1413.86597     557.2366     388.1235
   1413.85071     554.5941     386.2313   1413.85071     554.5941     386.2313
   1413.83545     551.2590     384.8496   1413.83545     551.2590     384.8496
   1413.82019     547.4146     383.7599   1413.82019     547.4146     383.7599
   1413.80493     545.1544     382.3808   1413.80493     545.1544     382.3808
   1413.78967     542.2435     380.3847   1413.78967     542.2435     380.3847
   1413.77441     538.8699     379.6151   1413.77441     538.8699     379.6151
   1413.75916     535.8712     377.5995   1413.75916     535.8712     377.5995
   1413.74390     532.7003     376.4106   1413.74390     532.7003     376.4106
   1413.72864     530.5354     374.1491   1413.72864     530.5354     374.1491
   1413.71338     526.7128     373.1923   1413.71338     526.7128     373.1923
   1413.69812     523.6732     371.8588   1413.69812     523.6732     371.8588
   1413.68286     521.0591     370.3759   1413.68286     521.0591     370.3759
   1413.66760     517.0426     368.5339   1413.66760     517.0426     368.5339
   1413.65234     513.4691     367.3298   1413.65234     513.4691     367.3298
   1413.63708     510.9637     365.5479   1413.63708     510.9637     365.5479
   1413.62183     507.9975     363.9076   1413.62183     507.9975     363.9076
   1413.60657     505.3881     362.2990   1413.60657     505.3881     362.2990
   1413.59131     501.4959     361.0118   1413.59131     501.4959     361.0118
   1413.57605     499.6660     359.5557   1413.57605     499.6660     359.5557
   1413.56079     496.1576     357.8833   1413.56079     496.1576     357.8833
   1413.54553     493.1318     356.2393   1413.54553     493.1318     356.2393
   1413.53027     490.4390     355.0251   1413.53027     490.4390     355.0251
   1413.51501     486.3634     353.4928   1413.51501     486.3634     353.4928
   1413.49976     484.0380     351.6173   1413.49976     484.0380     351.6173
   1413.48450     481.6779     350.4062   1413.48450     481.6779     350.4062
   1413.46924     477.4595     349.2440   1413.46924     477.4595     349.2440
   1413.45398     474.8455     346.4090   1413.45398     474.8455     346.4090
   1413.43872     472.1009     345.1974   1413.43872     472.1009     345.1974
   1413.42346     468.4087     344.1267   1413.42346     468.4087     344.1267
   1413.40820     466.7849     342.9804   1413.40820     466.7849     342.9804
   1413.39294     464.0463     341.0951   1413.39294     464.0463     341.0951
   1413.37769     460.5756     339.3350   1413.37769     460.5756     339.3350
   1413.36243     458.2036     338.0063   1413.36243     458.2036     338.0063
   1413.34717     455.3857     337.0714   1413.34717     455.3857     337.0714
   1413.33191     452.8048     335.1378   1413.33191     452.8048     335.1378
   1413.31665     449.4608     333.6083   1413.31665     449.4608     333.6083
   1413.30139     447.4971     331.8320   1413.30139     447.4971     331.8320
   1413.28613     444.2984     331.0146   1413.28613     444.2984     331.0146
   1413.27087     442.3663     329.0275   1413.27087     442.3663     329.0275
   1413.25562     438.1061     327.3537   1413.25562     438.1061     327.3537
   1413.24036     435.8893     326.1145   1413.24036     435.8893     326.1145
   1413.22510     433.5099     324.8760   1413.22510     433.5099     324.8760
   1413.20984     431.4193     323.2284   1413.20984     431.4193     323.2284
   1413.19458     428.3870     321.5938   1413.19458     428.3870     321.5938
   1413.17932     426.1843     320.2031   1413.17932     426.1843     320.2031
   1413.16406     423.5928     318.9642   1413.16406     423.5928     318.9642
   1413.14880     421.4398     317.7045   1413.14880     421.4398     317.7045
   1413.13354     418.9532     316.4411   1413.13354     418.9532     316.4411
   1413.11829     416.5878     314.7122   1413.11829     416.5878     314.7122
   1413.10303     414.4421     313.3814   1413.10303     414.4421     313.3814
   1413.08777     411.5059     311.8860   1413.08777     411.5059     311.8860
   1413.07251     409.8700     310.5331   1413.07251     409.8700     310.5331
   1413.05725     407.5503     309.5597   1413.05725     407.5503     309.5597
   1413.04199     405.1077     307.9491   1413.04199     405.1077     307.9491
   1413.02673     403.1768     306.7479   1413.02673     403.1768     306.7479
   1413.01147     400.7312     305.8081   1413.01147     400.7312     305.8081
   1412.99622     398.9236     304.2630   1412.99622     398.9236     304.2630
   1412.98096     396.7033     303.2213   1412.98096     396.7033     303.2213
   1412.96570     394.8145     302.0521   1412.96570     394.8145     302.0521
   1412.95044     393.2569     300.9115   1412.95044     393.2569     300.9115
   1412.93518     390.7333     299.8957   1412.93518     390.7333     299.8957
   1412.91992     388.5294     298.6466   1412.91992     388.5294     298.6466
   1412.90466     388.2121     297.3247   1412.90466     388.2121     297.3247
   1412.88940     385.3430     296.6135   1412.88940     385.3430     296.6135
   1412.87415     384.3804     295.8512   1412.87415     384.3804     295.8512
   1412.85889     381.6662     294.5428   1412.85889     381.6662     294.5428
   1412.84363     380.4343     293.3755   1412.84363     380.4343     293.3755
   1412.82837     378.6737     292.4365   1412.82837     378.6737     292.4365
   1412.81311     377.3851     291.6573   1412.81311     377.3851     291.6573
   1412.79785     376.3095     290.6025   1412.79785     376.3095     290.6025
   1412.78259     374.7506     289.0177   1412.78259     374.7506     289.0177
   1412.76733     373.0128     288.3652   1412.76733     373.0128     288.3652
   1412.75208     371.7863     287.6337   1412.75208     371.7863     287.6337
   1412.73682     370.2781     286.7462   1412.73682     370.2781     286.7462
   1412.72156     368.9873     285.8250   1412.72156     368.9873     285.8250
   1412.70630     367.8691     285.4976   1412.70630     367.8691     285.4976
   1412.69104     366.8674     284.6600   1412.69104     366.8674     284.6600
   1412.67578     365.4321     283.3892   1412.67578     365.4321     283.3892
   1412.66052     364.4370     283.0633   1412.66052     364.4370     283.0633
   1412.64526     363.8660     282.6138   1412.64526     363.8660     282.6138
   1412.63000     362.2348     281.7453   1412.63000     362.2348     281.7453
   1412.61475     362.0590     281.3078   1412.61475     362.0590     281.3078
   1412.59949     360.3979     280.7681   1412.59949     360.3979     280.7681
   1412.58423     359.8498     280.2647   1412.58423     359.8498     280.2647
   1412.56897     360.1247     279.4742   1412.56897     360.1247     279.4742
   1412.55371     358.8763     279.4089   1412.55371     358.8763     279.4089
   1412.53845     357.7062     279.0928   1412.53845     357.7062     279.0928
   1412.52319     357.4556     278.3718   1412.52319     357.4556     278.3718
   1412.50793     356.6370     277.7832   1412.50793     356.6370     277.7832
   1412.49268     356.4017     277.5379   1412.49268     356.4017     277.5379
   1412.47742     356.4861     276.8459   1412.47742     356.4861     276.8459
   1412.46216     355.8478     276.8965   1412.46216     355.8478     276.8965
   1412.44690     355.2197     276.7646   1412.44690     355.2197     276.7646
   1412.43164     355.6684     277.1579   1412.43164     355.6684     277.1579
   1412.41638     355.1298     276.6322   1412.41638     355.1298     276.6322
   1412.40112     354.4896     276.5313   1412.40112     354.4896     276.5313
   1412.38586     354.7415     276.5821   1412.38586     354.7415     276.5821
   1412.37061     354.9789     275.9894   1412.37061     354.9789     275.9894
   1412.35535     354.5672     276.2097   1412.35535     354.5672     276.2097
   1412.34009     355.0356     276.5465   1412.34009     355.0356     276.5465
   1412.32483     355.3492     276.8034   1412.32483     355.3492     276.8034
   1412.30957     355.2971     276.2776   1412.30957     355.2971     276.2776
   1412.29431     355.6723     277.1512   1412.29431     355.6723     277.1512
   1412.27905     356.2737     276.8802   1412.27905     356.2737     276.8802
   1412.26379     356.4848     277.1122   1412.26379     356.4848     277.1122
   1412.24854     356.2708     277.4402   1412.24854     356.2708     277.4402
   1412.23328     357.1151     277.8163   1412.23328     357.1151     277.8163
   1412.21802     357.0341     277.9598   1412.21802     357.0341     277.9598
   1412.20276     357.8413     278.3624   1412.20276     357.8413     278.3624