#     FILENAME=!Skynet_57528_lach-hhg-129_20427_20953.cyb.fits
#     BASENAME=Skynet_57528_lach-hhg-129_20427_20953
#     SRC_NAME=lach-hhg-129
#     OBSERVER=hhgmadison16_9500
#     DATE_OBS=2016-05-20T16:55:30.500
#        OBSID=20427
#      SCANNUM=20953
#          MJD=57528.7063
#          UTC=61019
#     SCANTYPE=track
#     DATAMODE=HIRES
#     TUNEFREQ=1420.0000
# Actual_FREQ1=1420.0000
# Actual_FREQ2=1420.0000
#    LO1Tuning=6870.000
#     RFFILTER=1355_1435
#        OBSBW=-15.6250
#        NCHAN=1024 
#        FOCUS=37.0709
#           RA=01:43:54.47
#          DEC=62:15:07.84
#      RA(hrs)=1.731800
#     DEC(deg)=62.252200
#    AZIM(deg)=333.987
#    ELEV(deg)=61.048
#     IFattens=10.00, 9.00
#      WARNING=None
#    TCAL_XL1=7.9635
#    TCAL_YR1=9.1340
#    TCAL_XL2=7.9635
#    TCAL_YR2=9.1340
#     TRX_XL1=11.7060
#     TRX_YR1=11.7060
#     TRX_XL2=11.7060
#     TRX_YR2=11.7060
#        TAVE=1.0000
#Freq1(MHz)          XL1          YR1  Freq2(MHz)          XL2          YR2 

   1427.81250     378.1258     286.4124   1427.81250     378.1258     286.4124
   1427.79724     379.1390     287.4869   1427.79724     379.1390     287.4869
   1427.78198     379.0102     288.1502   1427.78198     379.0102     288.1502
   1427.76672     380.0944     288.3700   1427.76672     380.0944     288.3700
   1427.75146     380.9355     289.6981   1427.75146     380.9355     289.6981
   1427.73621     382.2603     291.2159   1427.73621     382.2603     291.2159
   1427.72095     383.5711     292.1364   1427.72095     383.5711     292.1364
   1427.70569     383.7220     293.4021   1427.70569     383.7220     293.4021
   1427.69043     385.6010     294.3900   1427.69043     385.6010     294.3900
   1427.67517     386.3516     295.8327   1427.67517     386.3516     295.8327
   1427.65991     387.3457     296.8660   1427.65991     387.3457     296.8660
   1427.64465     388.7040     298.1817   1427.64465     388.7040     298.1817
   1427.62939     390.5789     299.7251   1427.62939     390.5789     299.7251
   1427.61414     391.0650     300.4925   1427.61414     391.0650     300.4925
   1427.59888     393.2984     302.1422   1427.59888     393.2984     302.1422
   1427.58362     393.7399     303.6619   1427.58362     393.7399     303.6619
   1427.56836     395.4644     304.5130   1427.56836     395.4644     304.5130
   1427.55310     396.9109     306.3433   1427.55310     396.9109     306.3433
   1427.53784     398.8098     308.3870   1427.53784     398.8098     308.3870
   1427.52258     400.2846     309.5772   1427.52258     400.2846     309.5772
   1427.50732     402.1057     311.0121   1427.50732     402.1057     311.0121
   1427.49207     404.0156     312.7128   1427.49207     404.0156     312.7128
   1427.47681     405.8795     314.3615   1427.47681     405.8795     314.3615
   1427.46155     407.4272     317.0982   1427.46155     407.4272     317.0982
   1427.44629     409.6946     318.0453   1427.44629     409.6946     318.0453
   1427.43103     411.1431     319.8212   1427.43103     411.1431     319.8212
   1427.41577     413.3232     321.7645   1427.41577     413.3232     321.7645
   1427.40051     415.0917     323.6892   1427.40051     415.0917     323.6892
   1427.38525     417.3501     325.1675   1427.38525     417.3501     325.1675
   1427.37000     419.7585     327.3625   1427.37000     419.7585     327.3625
   1427.35474     421.5661     329.2406   1427.35474     421.5661     329.2406
   1427.33948     424.1869     331.6646   1427.33948     424.1869     331.6646
   1427.32422     426.2356     333.2849   1427.32422     426.2356     333.2849
   1427.30896     428.2158     334.8843   1427.30896     428.2158     334.8843
   1427.29370     431.4574     337.7685   1427.29370     431.4574     337.7685
   1427.27844     433.5606     338.8584   1427.27844     433.5606     338.8584
   1427.26318     435.6062     341.6267   1427.26318     435.6062     341.6267
   1427.24792     438.1642     344.0097   1427.24792     438.1642     344.0097
   1427.23267     441.7060     345.5367   1427.23267     441.7060     345.5367
   1427.21741     443.3129     347.7823   1427.21741     443.3129     347.7823
   1427.20215     446.0393     350.0167   1427.20215     446.0393     350.0167
   1427.18689     448.3489     352.3837   1427.18689     448.3489     352.3837
   1427.17163     451.6733     354.3129   1427.17163     451.6733     354.3129
   1427.15637     454.1872     356.8058   1427.15637     454.1872     356.8058
   1427.14111     456.9816     359.2784   1427.14111     456.9816     359.2784
   1427.12585     458.7700     361.7134   1427.12585     458.7700     361.7134
   1427.11060     462.1121     364.4993   1427.11060     462.1121     364.4993
   1427.09534     465.4588     366.3428   1427.09534     465.4588     366.3428
   1427.08008     467.3367     368.8907   1427.08008     467.3367     368.8907
   1427.06482     470.8784     371.3478   1427.06482     470.8784     371.3478
   1427.04956     473.7149     373.2223   1427.04956     473.7149     373.2223
   1427.03430     476.4673     375.9321   1427.03430     476.4673     375.9321
   1427.01904     478.7689     378.3375   1427.01904     478.7689     378.3375
   1427.00378     482.7947     381.3860   1427.00378     482.7947     381.3860
   1426.98853     485.6423     383.9710   1426.98853     485.6423     383.9710
   1426.97327     488.3941     386.4024   1426.97327     488.3941     386.4024
   1426.95801     490.8870     388.3831   1426.95801     490.8870     388.3831
   1426.94275     494.6836     391.1047   1426.94275     494.6836     391.1047
   1426.92749     496.7663     393.0479   1426.92749     496.7663     393.0479
   1426.91223     500.5854     395.8804   1426.91223     500.5854     395.8804
   1426.89697     504.4155     398.3174   1426.89697     504.4155     398.3174
   1426.88171     506.6886     401.3590   1426.88171     506.6886     401.3590
   1426.86646     510.6779     404.2840   1426.86646     510.6779     404.2840
   1426.85120     513.7900     406.4337   1426.85120     513.7900     406.4337
   1426.83594     515.8561     408.2470   1426.83594     515.8561     408.2470
   1426.82068     518.9410     411.4098   1426.82068     518.9410     411.4098
   1426.80542     523.4542     414.1947   1426.80542     523.4542     414.1947
   1426.79016     525.8655     416.7734   1426.79016     525.8655     416.7734
   1426.77490     529.7148     419.7762   1426.77490     529.7148     419.7762
   1426.75964     532.4999     421.8307   1426.75964     532.4999     421.8307
   1426.74438     536.5916     424.1917   1426.74438     536.5916     424.1917
   1426.72913     539.1141     427.0152   1426.72913     539.1141     427.0152
   1426.71387     541.9409     429.7161   1426.71387     541.9409     429.7161
   1426.69861     546.0657     431.9678   1426.69861     546.0657     431.9678
   1426.68335     548.6294     435.3112   1426.68335     548.6294     435.3112
   1426.66809     552.2475     437.2915   1426.66809     552.2475     437.2915
   1426.65283     555.9147     440.4958   1426.65283     555.9147     440.4958
   1426.63757     559.4497     443.6941   1426.63757     559.4497     443.6941
   1426.62231     562.2224     447.4097   1426.62231     562.2224     447.4097
   1426.60706     564.7471     447.8180   1426.60706     564.7471     447.8180
   1426.59180     569.8065     450.2932   1426.59180     569.8065     450.2932
   1426.57654     572.7104     453.8501   1426.57654     572.7104     453.8501
   1426.56128     575.0803     455.5276   1426.56128     575.0803     455.5276
   1426.54602     578.3516     458.2928   1426.54602     578.3516     458.2928
   1426.53076     581.7778     461.2563   1426.53076     581.7778     461.2563
   1426.51550     585.9420     463.3949   1426.51550     585.9420     463.3949
   1426.50024     589.8749     466.5114   1426.50024     589.8749     466.5114
   1426.48499     591.9000     468.3045   1426.48499     591.9000     468.3045
   1426.46973     594.3605     470.9606   1426.46973     594.3605     470.9606
   1426.45447     598.7000     474.0092   1426.45447     598.7000     474.0092
   1426.43921     600.9755     475.5126   1426.43921     600.9755     475.5126
   1426.42395     604.0746     478.8887   1426.42395     604.0746     478.8887
   1426.40869     609.3364     481.7589   1426.40869     609.3364     481.7589
   1426.39343     610.6171     483.8749   1426.39343     610.6171     483.8749
   1426.37817     614.3896     485.9419   1426.37817     614.3896     485.9419
   1426.36292     616.3573     488.4273   1426.36292     616.3573     488.4273
   1426.34766     620.1108     490.6729   1426.34766     620.1108     490.6729
   1426.33240     623.2034     493.9501   1426.33240     623.2034     493.9501
   1426.31714     626.7877     495.8694   1426.31714     626.7877     495.8694
   1426.30188     628.7296     497.9549   1426.30188     628.7296     497.9549
   1426.28662     631.5624     500.3008   1426.28662     631.5624     500.3008
   1426.27136     635.6641     503.4022   1426.27136     635.6641     503.4022
   1426.25610     638.0145     505.6931   1426.25610     638.0145     505.6931
   1426.24084     641.8309     507.6944   1426.24084     641.8309     507.6944
   1426.22559     645.2167     509.3158   1426.22559     645.2167     509.3158
   1426.21033     648.0943     512.5791   1426.21033     648.0943     512.5791
   1426.19507     650.8262     515.1124   1426.19507     650.8262     515.1124
   1426.17981     651.9005     516.9273   1426.17981     651.9005     516.9273
   1426.16455     657.4131     519.5616   1426.16455     657.4131     519.5616
   1426.14929     659.0079     521.0580   1426.14929     659.0079     521.0580
   1426.13403     662.2864     523.6572   1426.13403     662.2864     523.6572
   1426.11877     663.9581     525.5331   1426.11877     663.9581     525.5331
   1426.10352     667.0123     527.5381   1426.10352     667.0123     527.5381
   1426.08826     669.5540     530.5613   1426.08826     669.5540     530.5613
   1426.07300     671.9946     531.6192   1426.07300     671.9946     531.6192
   1426.05774     675.8612     534.0088   1426.05774     675.8612     534.0088
   1426.04248     677.9644     535.9557   1426.04248     677.9644     535.9557
   1426.02722     680.5406     538.5592   1426.02722     680.5406     538.5592
   1426.01196     682.4655     540.2877   1426.01196     682.4655     540.2877
   1425.99670     686.2075     542.8495   1425.99670     686.2075     542.8495
   1425.98145     688.8721     544.5783   1425.98145     688.8721     544.5783
   1425.96619     690.6504     545.9171   1425.96619     690.6504     545.9171
   1425.95093     693.3920     548.1395   1425.95093     693.3920     548.1395
   1425.93567     694.8820     550.1971   1425.93567     694.8820     550.1971
   1425.92041     697.1877     551.9183   1425.92041     697.1877     551.9183
   1425.90515     700.2556     554.1036   1425.90515     700.2556     554.1036
   1425.88989     703.3957     555.8487   1425.88989     703.3957     555.8487
   1425.87463     705.6311     558.0014   1425.87463     705.6311     558.0014
   1425.85938     707.4407     560.4610   1425.85938     707.4407     560.4610
   1425.84412     710.7598     562.4360   1425.84412     710.7598     562.4360
   1425.82886     711.6613     563.5299   1425.82886     711.6613     563.5299
   1425.81360     715.5270     565.1401   1425.81360     715.5270     565.1401
   1425.79834     717.8724     567.2565   1425.79834     717.8724     567.2565
   1425.78308     719.5160     569.3481   1425.78308     719.5160     569.3481
   1425.76782     721.1714     571.0817   1425.76782     721.1714     571.0817
   1425.75256     723.1666     573.1111   1425.75256     723.1666     573.1111
   1425.73730     726.4556     573.8482   1425.73730     726.4556     573.8482
   1425.72205     726.9678     575.3003   1425.72205     726.9678     575.3003
   1425.70679     729.5826     578.3705   1425.70679     729.5826     578.3705
   1425.69153     730.6179     579.6275   1425.69153     730.6179     579.6275
   1425.67627     733.4147     580.6940   1425.67627     733.4147     580.6940
   1425.66101     734.2225     581.4729   1425.66101     734.2225     581.4729
   1425.64575     737.4673     584.5792   1425.64575     737.4673     584.5792
   1425.63049     737.3402     585.3191   1425.63049     737.3402     585.3191
   1425.61523     740.8362     586.8754   1425.61523     740.8362     586.8754
   1425.59998     741.4496     588.6772   1425.59998     741.4496     588.6772
   1425.58472     743.6389     589.5014   1425.58472     743.6389     589.5014
   1425.56946     745.4344     590.6552   1425.56946     745.4344     590.6552
   1425.55420     745.7414     592.5452   1425.55420     745.7414     592.5452
   1425.53894     747.6906     593.9374   1425.53894     747.6906     593.9374
   1425.52368     750.0954     595.6948   1425.52368     750.0954     595.6948
   1425.50842     751.2193     596.6070   1425.50842     751.2193     596.6070
   1425.49316     752.8616     598.3176   1425.49316     752.8616     598.3176
   1425.47791     754.0627     599.3367   1425.47791     754.0627     599.3367
   1425.46265     756.2825     600.6623   1425.46265     756.2825     600.6623
   1425.44739     757.3478     601.7860   1425.44739     757.3478     601.7860
   1425.43213     757.7623     603.8234   1425.43213     757.7623     603.8234
   1425.41687     760.4601     603.7829   1425.41687     760.4601     603.7829
   1425.40161     760.3719     605.3514   1425.40161     760.3719     605.3514
   1425.38635     761.7163     605.7097   1425.38635     761.7163     605.7097
   1425.37109     763.5999     608.5863   1425.37109     763.5999     608.5863
   1425.35583     764.3982     609.3434   1425.35583     764.3982     609.3434
   1425.34058     767.7900     610.5519   1425.34058     767.7900     610.5519
   1425.32532     767.0089     611.2041   1425.32532     767.0089     611.2041
   1425.31006     767.6610     611.4535   1425.31006     767.6610     611.4535
   1425.29480     768.2712     613.7076   1425.29480     768.2712     613.7076
   1425.27954     770.7781     614.0025   1425.27954     770.7781     614.0025
   1425.26428     770.4951     614.1158   1425.26428     770.4951     614.1158
   1425.24902     771.2579     615.3578   1425.24902     771.2579     615.3578
   1425.23376     773.2211     617.7161   1425.23376     773.2211     617.7161
   1425.21851     774.0327     617.8369   1425.21851     774.0327     617.8369
   1425.20325     773.5175     618.4382   1425.20325     773.5175     618.4382
   1425.18799     775.5242     620.1984   1425.18799     775.5242     620.1984
   1425.17273     776.3164     620.3055   1425.17273     776.3164     620.3055
   1425.15747     777.3001     622.1978   1425.15747     777.3001     622.1978
   1425.14221     777.8643     622.0615   1425.14221     777.8643     622.0615
   1425.12695     777.9804     624.3754   1425.12695     777.9804     624.3754
   1425.11169     777.8470     624.3099   1425.11169     777.8470     624.3099
   1425.09644     778.7318     624.3083   1425.09644     778.7318     624.3083
   1425.08118     780.2376     625.6542   1425.08118     780.2376     625.6542
   1425.06592     780.5685     627.4531   1425.06592     780.5685     627.4531
   1425.05066     780.9764     628.0734   1425.05066     780.9764     628.0734
   1425.03540     782.2216     628.5516   1425.03540     782.2216     628.5516
   1425.02014     783.0181     629.6332   1425.02014     783.0181     629.6332
   1425.00488     782.6930     630.4980   1425.00488     782.6930     630.4980
   1424.98962     783.7090     630.9969   1424.98962     783.7090     630.9969
   1424.97437     784.2281     632.1533   1424.97437     784.2281     632.1533
   1424.95911     783.6637     631.8570   1424.95911     783.6637     631.8570
   1424.94385     784.8443     632.3419   1424.94385     784.8443     632.3419
   1424.92859     784.4539     632.8712   1424.92859     784.4539     632.8712
   1424.91333     783.7130     632.9034   1424.91333     783.7130     632.9034
   1424.89807     785.6289     633.6811   1424.89807     785.6289     633.6811
   1424.88281     786.7455     635.1957   1424.88281     786.7455     635.1957
   1424.86755     786.7944     634.8463   1424.86755     786.7944     634.8463
   1424.85229     786.1992     636.0572   1424.85229     786.1992     636.0572
   1424.83704     785.5032     635.5139   1424.83704     785.5032     635.5139
   1424.82178     786.2319     636.4882   1424.82178     786.2319     636.4882
   1424.80652     786.5421     636.8631   1424.80652     786.5421     636.8631
   1424.79126     786.4374     637.7827   1424.79126     786.4374     637.7827
   1424.77600     786.6634     639.0587   1424.77600     786.6634     639.0587
   1424.76074     787.1591     637.4359   1424.76074     787.1591     637.4359
   1424.74548     787.1373     638.6635   1424.74548     787.1373     638.6635
   1424.73022     788.5236     639.9371   1424.73022     788.5236     639.9371
   1424.71497     787.0964     638.7687   1424.71497     787.0964     638.7687
   1424.69971     788.2454     639.4398   1424.69971     788.2454     639.4398
   1424.68445     787.6676     639.4951   1424.68445     787.6676     639.4951
   1424.66919     787.8619     639.5389   1424.66919     787.8619     639.5389
   1424.65393     787.1732     639.8655   1424.65393     787.1732     639.8655
   1424.63867     787.6772     641.8326   1424.63867     787.6772     641.8326
   1424.62341     787.7251     641.1892   1424.62341     787.7251     641.1892
   1424.60815     788.4293     640.7953   1424.60815     788.4293     640.7953
   1424.59290     787.5718     642.2385   1424.59290     787.5718     642.2385
   1424.57764     788.0716     641.5357   1424.57764     788.0716     641.5357
   1424.56238     786.7175     642.7822   1424.56238     786.7175     642.7822
   1424.54712     787.0397     642.5801   1424.54712     787.0397     642.5801
   1424.53186     786.3892     642.8329   1424.53186     786.3892     642.8329
   1424.51660     786.7772     642.8895   1424.51660     786.7772     642.8895
   1424.50134     785.6530     642.5659   1424.50134     785.6530     642.5659
   1424.48608     785.9030     643.1202   1424.48608     785.9030     643.1202
   1424.47083     786.2596     643.2360   1424.47083     786.2596     643.2360
   1424.45557     785.2484     643.5590   1424.45557     785.2484     643.5590
   1424.44031     785.6833     643.7841   1424.44031     785.6833     643.7841
   1424.42505     785.9720     643.2391   1424.42505     785.9720     643.2391
   1424.40979     785.0903     643.6827   1424.40979     785.0903     643.6827
   1424.39453     784.7548     643.1744   1424.39453     784.7548     643.1744
   1424.37927     785.1300     642.4612   1424.37927     785.1300     642.4612
   1424.36401     783.7597     644.9106   1424.36401     783.7597     644.9106
   1424.34875     783.8765     644.3708   1424.34875     783.8765     644.3708
   1424.33350     785.1918     643.7493   1424.33350     785.1918     643.7493
   1424.31824     781.7639     644.3759   1424.31824     781.7639     644.3759
   1424.30298     782.5526     643.8193   1424.30298     782.5526     643.8193
   1424.28772     780.8635     643.2327   1424.28772     780.8635     643.2327
   1424.27246     783.1890     643.4366   1424.27246     783.1890     643.4366
   1424.25720     782.0029     643.9948   1424.25720     782.0029     643.9948
   1424.24194     780.7857     643.2291   1424.24194     780.7857     643.2291
   1424.22668     781.3378     643.1108   1424.22668     781.3378     643.1108
   1424.21143     780.8000     643.3497   1424.21143     780.8000     643.3497
   1424.19617     781.4097     642.3667   1424.19617     781.4097     642.3667
   1424.18091     779.5127     643.1002   1424.18091     779.5127     643.1002
   1424.16565     779.7939     643.1949   1424.16565     779.7939     643.1949
   1424.15039     779.9620     643.9469   1424.15039     779.9620     643.9469
   1424.13513     779.4239     642.0923   1424.13513     779.4239     642.0923
   1424.11987     778.2946     643.2409   1424.11987     778.2946     643.2409
   1424.10461     779.9766     642.8685   1424.10461     779.9766     642.8685
   1424.08936     777.1187     642.3960   1424.08936     777.1187     642.3960
   1424.07410     776.6499     641.5580   1424.07410     776.6499     641.5580
   1424.05884     775.2859     641.8931   1424.05884     775.2859     641.8931
   1424.04358     774.8467     642.1215   1424.04358     774.8467     642.1215
   1424.02832     776.3744     640.9918   1424.02832     776.3744     640.9918
   1424.01306     775.8382     641.8834   1424.01306     775.8382     641.8834
   1423.99780     774.4016     642.0941   1423.99780     774.4016     642.0941
   1423.98254     774.4850     640.0782   1423.98254     774.4850     640.0782
   1423.96729     772.9885     639.9985   1423.96729     772.9885     639.9985
   1423.95203     774.0793     639.3658   1423.95203     774.0793     639.3658
   1423.93677     772.2159     640.4512   1423.93677     772.2159     640.4512
   1423.92151     772.3727     639.5989   1423.92151     772.3727     639.5989
   1423.90625     772.4282     638.9431   1423.90625     772.4282     638.9431
   1423.89099     771.9495     639.0869   1423.89099     771.9495     639.0869
   1423.87573     771.8289     639.6179   1423.87573     771.8289     639.6179
   1423.86047     770.2325     638.2533   1423.86047     770.2325     638.2533
   1423.84521     770.1818     637.7137   1423.84521     770.1818     637.7137
   1423.82996     769.4916     638.2371   1423.82996     769.4916     638.2371
   1423.81470     767.8878     637.4267   1423.81470     767.8878     637.4267
   1423.79944     769.3663     637.4363   1423.79944     769.3663     637.4363
   1423.78418     768.1856     636.2762   1423.78418     768.1856     636.2762
   1423.76892     767.2813     635.4669   1423.76892     767.2813     635.4669
   1423.75366     767.0082     635.8893   1423.75366     767.0082     635.8893
   1423.73840     765.5909     635.0576   1423.73840     765.5909     635.0576
   1423.72314     765.7307     635.3718   1423.72314     765.7307     635.3718
   1423.70789     766.5697     633.8325   1423.70789     766.5697     633.8325
   1423.69263     764.3428     635.3398   1423.69263     764.3428     635.3398
   1423.67737     765.2755     633.4554   1423.67737     765.2755     633.4554
   1423.66211     764.0235     634.0047   1423.66211     764.0235     634.0047
   1423.64685     764.5790     632.8378   1423.64685     764.5790     632.8378
   1423.63159     762.8376     632.2319   1423.63159     762.8376     632.2319
   1423.61633     762.6754     631.7906   1423.61633     762.6754     631.7906
   1423.60107     762.2143     631.3038   1423.60107     762.2143     631.3038
   1423.58582     761.9274     631.4327   1423.58582     761.9274     631.4327
   1423.57056     761.8546     630.0597   1423.57056     761.8546     630.0597
   1423.55530     760.9821     630.3333   1423.55530     760.9821     630.3333
   1423.54004     760.3199     629.3023   1423.54004     760.3199     629.3023
   1423.52478     760.0510     629.2703   1423.52478     760.0510     629.2703
   1423.50952     759.5446     627.7863   1423.50952     759.5446     627.7863
   1423.49426     758.0031     628.1724   1423.49426     758.0031     628.1724
   1423.47900     758.3474     626.6705   1423.47900     758.3474     626.6705
   1423.46375     757.4463     626.8092   1423.46375     757.4463     626.8092
   1423.44849     755.9186     625.6768   1423.44849     755.9186     625.6768
   1423.43323     755.8698     626.0023   1423.43323     755.8698     626.0023
   1423.41797     755.7997     625.1306   1423.41797     755.7997     625.1306
   1423.40271     755.9329     623.8865   1423.40271     755.9329     623.8865
   1423.38745     754.8979     623.0059   1423.38745     754.8979     623.0059
   1423.37219     755.5679     623.3600   1423.37219     755.5679     623.3600
   1423.35693     754.2757     622.0133   1423.35693     754.2757     622.0133
   1423.34167     754.7043     621.9810   1423.34167     754.7043     621.9810
   1423.32642     753.0720     620.7305   1423.32642     753.0720     620.7305
   1423.31116     752.2701     620.8899   1423.31116     752.2701     620.8899
   1423.29590     751.9671     619.5185   1423.29590     751.9671     619.5185
   1423.28064     750.4451     619.2083   1423.28064     750.4451     619.2083
   1423.26538     751.6472     618.6402   1423.26538     751.6472     618.6402
   1423.25012     751.6273     617.9592   1423.25012     751.6273     617.9592
   1423.23486     749.8351     616.2699   1423.23486     749.8351     616.2699
   1423.21960     749.0667     615.7709   1423.21960     749.0667     615.7709
   1423.20435     749.5826     615.6129   1423.20435     749.5826     615.6129
   1423.18909     748.5828     615.0468   1423.18909     748.5828     615.0468
   1423.17383     749.4352     613.2463   1423.17383     749.4352     613.2463
   1423.15857     747.8695     612.7841   1423.15857     747.8695     612.7841
   1423.14331     748.0603     612.9819   1423.14331     748.0603     612.9819
   1423.12805     746.0156     612.7600   1423.12805     746.0156     612.7600
   1423.11279     746.8076     611.6718   1423.11279     746.8076     611.6718
   1423.09753     746.6279     611.5425   1423.09753     746.6279     611.5425
   1423.08228     746.1859     609.1498   1423.08228     746.1859     609.1498
   1423.06702     744.0378     608.9874   1423.06702     744.0378     608.9874
   1423.05176     746.0146     608.9395   1423.05176     746.0146     608.9395
   1423.03650     744.6679     607.6352   1423.03650     744.6679     607.6352
   1423.02124     744.4709     606.2288   1423.02124     744.4709     606.2288
   1423.00598     742.3118     606.9765   1423.00598     742.3118     606.9765
   1422.99072     743.2010     605.5173   1422.99072     743.2010     605.5173
   1422.97546     742.7706     604.3790   1422.97546     742.7706     604.3790
   1422.96021     742.0704     604.8501   1422.96021     742.0704     604.8501
   1422.94495     742.6451     603.0300   1422.94495     742.6451     603.0300
   1422.92969     741.1379     602.0717   1422.92969     741.1379     602.0717
   1422.91443     741.4389     602.6094   1422.91443     741.4389     602.6094
   1422.89917     741.7144     600.7882   1422.89917     741.7144     600.7882
   1422.88391     740.2377     600.7758   1422.88391     740.2377     600.7758
   1422.86865     739.8909     599.4546   1422.86865     739.8909     599.4546
   1422.85339     739.9221     598.5806   1422.85339     739.9221     598.5806
   1422.83813     740.0681     598.2958   1422.83813     740.0681     598.2958
   1422.82288     738.5493     596.7029   1422.82288     738.5493     596.7029
   1422.80762     739.7985     597.2786   1422.80762     739.7985     597.2786
   1422.79236     739.0543     595.4959   1422.79236     739.0543     595.4959
   1422.77710     737.4266     594.1508   1422.77710     737.4266     594.1508
   1422.76184     737.8945     593.9733   1422.76184     737.8945     593.9733
   1422.74658     738.4364     592.3290   1422.74658     738.4364     592.3290
   1422.73132     736.4537     591.9655   1422.73132     736.4537     591.9655
   1422.71606     737.2272     591.2518   1422.71606     737.2272     591.2518
   1422.70081     735.9011     589.3693   1422.70081     735.9011     589.3693
   1422.68555     735.8962     589.9579   1422.68555     735.8962     589.9579
   1422.67029     735.7958     588.6312   1422.67029     735.7958     588.6312
   1422.65503     735.3719     587.5096   1422.65503     735.3719     587.5096
   1422.63977     735.5159     586.4584   1422.63977     735.5159     586.4584
   1422.62451     734.4344     586.2540   1422.62451     734.4344     586.2540
   1422.60925     735.2693     585.5569   1422.60925     735.2693     585.5569
   1422.59399     733.8937     583.8016   1422.59399     733.8937     583.8016
   1422.57874     732.7741     582.5639   1422.57874     732.7741     582.5639
   1422.56348     734.3090     581.7209   1422.56348     734.3090     581.7209
   1422.54822     733.2146     581.3171   1422.54822     733.2146     581.3171
   1422.53296     733.9023     581.0391   1422.53296     733.9023     581.0391
   1422.51770     732.7559     579.3446   1422.51770     732.7559     579.3446
   1422.50244     732.4260     578.4964   1422.50244     732.4260     578.4964
   1422.48718     732.1696     578.3875   1422.48718     732.1696     578.3875
   1422.47192     731.5584     577.4457   1422.47192     731.5584     577.4457
   1422.45667     731.1530     575.6022   1422.45667     731.1530     575.6022
   1422.44141     729.5623     574.7481   1422.44141     729.5623     574.7481
   1422.42615     729.3180     573.7637   1422.42615     729.3180     573.7637
   1422.41089     729.9554     574.1288   1422.41089     729.9554     574.1288
   1422.39563     730.6598     573.3575   1422.39563     730.6598     573.3575
   1422.38037     729.9120     571.5383   1422.38037     729.9120     571.5383
   1422.36511     729.5851     570.7239   1422.36511     729.5851     570.7239
   1422.34985     729.3535     570.7532   1422.34985     729.3535     570.7532
   1422.33459     730.2538     568.7979   1422.33459     730.2538     568.7979
   1422.31934     728.3248     568.2904   1422.31934     728.3248     568.2904
   1422.30408     729.4482     567.2794   1422.30408     729.4482     567.2794
   1422.28882     728.2115     566.5570   1422.28882     728.2115     566.5570
   1422.27356     729.0364     565.5471   1422.27356     729.0364     565.5471
   1422.25830     728.3583     564.3106   1422.25830     728.3583     564.3106
   1422.24304     728.3230     565.2624   1422.24304     728.3230     565.2624
   1422.22778     727.6984     563.5457   1422.22778     727.6984     563.5457
   1422.21252     727.2179     561.7594   1422.21252     727.2179     561.7594
   1422.19727     727.6516     559.9747   1422.19727     727.6516     559.9747
   1422.18201     726.2420     559.9756   1422.18201     726.2420     559.9756
   1422.16675     727.1984     557.7213   1422.16675     727.1984     557.7213
   1422.15149     726.1263     558.2266   1422.15149     726.1263     558.2266
   1422.13623     726.7849     555.9927   1422.13623     726.7849     555.9927
   1422.12097     726.5036     556.0541   1422.12097     726.5036     556.0541
   1422.10571     726.7687     554.6976   1422.10571     726.7687     554.6976
   1422.09045     725.9998     553.8680   1422.09045     725.9998     553.8680
   1422.07520     724.9027     553.0508   1422.07520     724.9027     553.0508
   1422.05994     725.5825     550.8636   1422.05994     725.5825     550.8636
   1422.04468     725.0422     551.4200   1422.04468     725.0422     551.4200
   1422.02942     724.5355     550.4854   1422.02942     724.5355     550.4854
   1422.01416     723.6744     549.8425   1422.01416     723.6744     549.8425
   1421.99890     725.5618     548.2166   1421.99890     725.5618     548.2166
   1421.98364     723.6224     548.0320   1421.98364     723.6224     548.0320
   1421.96838     723.8684     546.5861   1421.96838     723.8684     546.5861
   1421.95312     724.0153     545.3639   1421.95312     724.0153     545.3639
   1421.93787     723.5800     544.4742   1421.93787     723.5800     544.4742
   1421.92261     722.9741     544.0357   1421.92261     722.9741     544.0357
   1421.90735     723.3783     542.2850   1421.90735     723.3783     542.2850
   1421.89209     722.6124     542.1273   1421.89209     722.6124     542.1273
   1421.87683     722.4705     540.5994   1421.87683     722.4705     540.5994
   1421.86157     723.4474     539.6060   1421.86157     723.4474     539.6060
   1421.84631     722.2111     538.5447   1421.84631     722.2111     538.5447
   1421.83105     722.4685     538.6046   1421.83105     722.4685     538.6046
   1421.81580     721.0054     536.8653   1421.81580     721.0054     536.8653
   1421.80054     720.5546     534.7684   1421.80054     720.5546     534.7684
   1421.78528     722.0848     534.8851   1421.78528     722.0848     534.8851
   1421.77002     720.7507     533.8936   1421.77002     720.7507     533.8936
   1421.75476     722.0347     532.3676   1421.75476     722.0347     532.3676
   1421.73950     721.2598     532.5298   1421.73950     721.2598     532.5298
   1421.72424     720.7391     531.8604   1421.72424     720.7391     531.8604
   1421.70898     721.7230     530.1868   1421.70898     721.7230     530.1868
   1421.69373     720.0856     528.6752   1421.69373     720.0856     528.6752
   1421.67847     721.6000     528.7421   1421.67847     721.6000     528.7421
   1421.66321     719.8291     527.5198   1421.66321     719.8291     527.5198
   1421.64795     719.9991     525.7299   1421.64795     719.9991     525.7299
   1421.63269     720.6958     524.5585   1421.63269     720.6958     524.5585
   1421.61743     720.4894     524.9395   1421.61743     720.4894     524.9395
   1421.60217     720.3080     522.7668   1421.60217     720.3080     522.7668
   1421.58691     719.7589     521.8234   1421.58691     719.7589     521.8234
   1421.57166     718.1910     521.7721   1421.57166     718.1910     521.7721
   1421.55640     719.8710     520.0189   1421.55640     719.8710     520.0189
   1421.54114     718.6042     519.4847   1421.54114     718.6042     519.4847
   1421.52588     720.4933     520.0069   1421.52588     720.4933     520.0069
   1421.51062     718.3768     519.2681   1421.51062     718.3768     519.2681
   1421.49536     719.7635     518.1638   1421.49536     719.7635     518.1638
   1421.48010     719.1907     516.9252   1421.48010     719.1907     516.9252
   1421.46484     719.7979     515.9801   1421.46484     719.7979     515.9801
   1421.44958     719.4694     516.0828   1421.44958     719.4694     516.0828
   1421.43433     720.7242     514.7365   1421.43433     720.7242     514.7365
   1421.41907     720.3633     513.8828   1421.41907     720.3633     513.8828
   1421.40381     720.8292     512.9974   1421.40381     720.8292     512.9974
   1421.38855     721.1371     512.7179   1421.38855     721.1371     512.7179
   1421.37329     722.0344     512.2309   1421.37329     722.0344     512.2309
   1421.35803     720.9178     511.2715   1421.35803     720.9178     511.2715
   1421.34277     720.0927     509.4134   1421.34277     720.0927     509.4134
   1421.32751     719.8913     509.8349   1421.32751     719.8913     509.8349
   1421.31226     718.3605     507.4316   1421.31226     718.3605     507.4316
   1421.29700     718.2765     506.5341   1421.29700     718.2765     506.5341
   1421.28174     718.2374     505.0113   1421.28174     718.2374     505.0113
   1421.26648     717.9943     503.9418   1421.26648     717.9943     503.9418
   1421.25122     717.9891     503.7108   1421.25122     717.9891     503.7108
   1421.23596     718.3103     502.3831   1421.23596     718.3103     502.3831
   1421.22070     718.2474     501.9255   1421.22070     718.2474     501.9255
   1421.20544     719.9358     501.4715   1421.20544     719.9358     501.4715
   1421.19019     720.3209     499.9042   1421.19019     720.3209     499.9042
   1421.17493     719.9716     500.8422   1421.17493     719.9716     500.8422
   1421.15967     719.9528     500.1333   1421.15967     719.9528     500.1333
   1421.14441     720.1788     498.7007   1421.14441     720.1788     498.7007
   1421.12915     719.8225     498.5083   1421.12915     719.8225     498.5083
   1421.11389     720.6720     497.5313   1421.11389     720.6720     497.5313
   1421.09863     721.1107     498.0712   1421.09863     721.1107     498.0712
   1421.08337     722.2789     496.8098   1421.08337     722.2789     496.8098
   1421.06812     725.1851     498.2812   1421.06812     725.1851     498.2812
   1421.05286     730.8277     501.8948   1421.05286     730.8277     501.8948
   1421.03760     743.8365     509.2678   1421.03760     743.8365     509.2678
   1421.02234     749.3144     512.0143   1421.02234     749.3144     512.0143
   1421.00708     748.3248     510.9268   1421.00708     748.3248     510.9268
   1420.99182     765.3641     521.1625   1420.99182     765.3641     521.1625
   1420.97656     806.0432     546.7488   1420.97656     806.0432     546.7488
   1420.96130     844.7330     572.3680   1420.96130     844.7330     572.3680
   1420.94604     864.5059     585.4615   1420.94604     864.5059     585.4615
   1420.93079     866.0023     586.3158   1420.93079     866.0023     586.3158
   1420.91553     932.6144     628.2639   1420.91553     932.6144     628.2639
   1420.90027    1025.3947     688.4500   1420.90027    1025.3947     688.4500
   1420.88501    1082.2384     723.0432   1420.88501    1082.2384     723.0432
   1420.86975    1046.5369     700.2310   1420.86975    1046.5369     700.2310
   1420.85449    1090.0092     727.1806   1420.85449    1090.0092     727.1806
   1420.83923    1051.5344     701.2785   1420.83923    1051.5344     701.2785
   1420.82397     976.7383     651.9645   1420.82397     976.7383     651.9645
   1420.80872     991.5006     660.0712   1420.80872     991.5006     660.0712
   1420.79346    1029.5978     684.8199   1420.79346    1029.5978     684.8199
   1420.77820    1123.3772     742.5642   1420.77820    1123.3772     742.5642
   1420.76294    1295.1633     852.3348   1420.76294    1295.1633     852.3348
   1420.74768    1490.2861     979.5094   1420.74768    1490.2861     979.5094
   1420.73242    1760.1941    1149.5142   1420.73242    1760.1941    1149.5142
   1420.71716    1982.0151    1290.9055   1420.71716    1982.0151    1290.9055
   1420.70190    2132.7661    1389.0565   1420.70190    2132.7661    1389.0565
   1420.68665    2212.6208    1436.7441   1420.68665    2212.6208    1436.7441
   1420.67139    2219.6897    1439.6780   1420.67139    2219.6897    1439.6780
   1420.65613    2229.1675    1443.3165   1420.65613    2229.1675    1443.3165
   1420.64087    2182.4250    1411.5248   1420.64087    2182.4250    1411.5248
   1420.62561    1968.9617    1271.3607   1420.62561    1968.9617    1271.3607
   1420.61035    1830.6492    1183.9249   1420.61035    1830.6492    1183.9249
   1420.59509    1633.5670    1055.5575   1420.59509    1633.5670    1055.5575
   1420.57983    1353.4191     874.9241   1420.57983    1353.4191     874.9241
   1420.56458    1169.9735     757.8856   1420.56458    1169.9735     757.8856
   1420.54932    1156.2390     749.2192   1420.54932    1156.2390     749.2192
   1420.53406    1335.6006     859.9753   1420.53406    1335.6006     859.9753
   1420.51880    1408.8618     904.9315   1420.51880    1408.8618     904.9315
   1420.50354    1402.6212     902.1834   1420.50354    1402.6212     902.1834
   1420.48828    1555.8463     997.1281   1420.48828    1555.8463     997.1281
   1420.47302    1585.7261    1012.3109   1420.47302    1585.7261    1012.3109
   1420.45776    1557.6113     992.5995   1420.45776    1557.6113     992.5995
   1420.44250    1501.3342     956.9935   1420.44250    1501.3342     956.9935
   1420.42725    1478.7375     941.0687   1420.42725    1478.7375     941.0687
   1420.41199    1091.0079     696.3686   1420.41199    1091.0079     696.3686
   1420.39673     886.2015     565.9437   1420.39673     886.2015     565.9437
   1420.38147     787.7848     504.2966   1420.38147     787.7848     504.2966
   1420.36621     747.5571     480.6724   1420.36621     747.5571     480.6724
   1420.35095     731.3365     469.3987   1420.35095     731.3365     469.3987
   1420.33569     723.2786     464.0108   1420.33569     723.2786     464.0108
   1420.32043     717.6599     460.6379   1420.32043     717.6599     460.6379
   1420.30518     716.2139     458.1332   1420.30518     716.2139     458.1332
   1420.28992     714.0294     457.6247   1420.28992     714.0294     457.6247
   1420.27466     712.7950     455.3523   1420.27466     712.7950     455.3523
   1420.25940     710.5480     454.6445   1420.25940     710.5480     454.6445
   1420.24414     711.1719     453.0251   1420.24414     711.1719     453.0251
   1420.22888     710.5509     451.9958   1420.22888     710.5509     451.9958
   1420.21362     710.3409     451.1875   1420.21362     710.3409     451.1875
   1420.19836     709.2175     450.1432   1420.19836     709.2175     450.1432
   1420.18311     706.8217     448.4892   1420.18311     706.8217     448.4892
   1420.16785     707.5530     447.8403   1420.16785     707.5530     447.8403
   1420.15259     707.1744     447.3777   1420.15259     707.1744     447.3777
   1420.13733     706.5554     446.8025   1420.13733     706.5554     446.8025
   1420.12207     703.9378     445.9648   1420.12207     703.9378     445.9648
   1420.10681     704.8673     445.3477   1420.10681     704.8673     445.3477
   1420.09155     703.6228     444.1602   1420.09155     703.6228     444.1602
   1420.07629     703.7243     443.0365   1420.07629     703.7243     443.0365
   1420.06104     703.8645     443.1925   1420.06104     703.8645     443.1925
   1420.04578     701.9239     441.8131   1420.04578     701.9239     441.8131
   1420.03052     703.2991     441.5520   1420.03052     703.2991     441.5520
   1420.01526     705.6074     442.0031   1420.01526     705.6074     442.0031
   1420.00000     705.5115     442.8958   1420.00000     705.5115     442.8958
   1419.98474     705.4156     443.7885   1419.98474     705.4156     443.7885
   1419.96948     704.0159     440.6367   1419.96948     704.0159     440.6367
   1419.95422     703.2709     438.9690   1419.95422     703.2709     438.9690
   1419.93896     703.4897     439.5685   1419.93896     703.4897     439.5685
   1419.92371     702.2203     439.0363   1419.92371     702.2203     439.0363
   1419.90845     702.3300     438.3919   1419.90845     702.3300     438.3919
   1419.89319     702.4183     438.2709   1419.89319     702.4183     438.2709
   1419.87793     703.5227     437.9242   1419.87793     703.5227     437.9242
   1419.86267     702.8959     437.5137   1419.86267     702.8959     437.5137
   1419.84741     703.2955     437.3993   1419.84741     703.2955     437.3993
   1419.83215     702.1292     437.0227   1419.83215     702.1292     437.0227
   1419.81689     702.5903     436.8705   1419.81689     702.5903     436.8705
   1419.80164     701.5701     436.5216   1419.80164     701.5701     436.5216
   1419.78638     704.0530     436.8553   1419.78638     704.0530     436.8553
   1419.77112     703.5781     436.1521   1419.77112     703.5781     436.1521
   1419.75586     703.4477     435.7369   1419.75586     703.4477     435.7369
   1419.74060     704.0126     435.8466   1419.74060     704.0126     435.8466
   1419.72534     704.5492     436.0680   1419.72534     704.5492     436.0680
   1419.71008     702.8264     434.9729   1419.71008     702.8264     434.9729
   1419.69482     703.6436     434.6543   1419.69482     703.6436     434.6543
   1419.67957     703.8708     435.3101   1419.67957     703.8708     435.3101
   1419.66431     704.3907     435.0413   1419.66431     704.3907     435.0413
   1419.64905     704.7154     435.5820   1419.64905     704.7154     435.5820
   1419.63379     705.3834     434.8211   1419.63379     705.3834     434.8211
   1419.61853     705.5743     434.7317   1419.61853     705.5743     434.7317
   1419.60327     705.4908     434.4465   1419.60327     705.4908     434.4465
   1419.58801     705.1506     434.3347   1419.58801     705.1506     434.3347
   1419.57275     706.3010     434.4322   1419.57275     706.3010     434.4322
   1419.55750     706.5275     435.1360   1419.55750     706.5275     435.1360
   1419.54224     706.3461     434.4299   1419.54224     706.3461     434.4299
   1419.52698     706.9171     434.4681   1419.52698     706.9171     434.4681
   1419.51172     707.7043     434.1057   1419.51172     707.7043     434.1057
   1419.49646     707.3285     435.0428   1419.49646     707.3285     435.0428
   1419.48120     708.2234     434.5701   1419.48120     708.2234     434.5701
   1419.46594     707.8096     433.7008   1419.46594     707.8096     433.7008
   1419.45068     708.0920     434.6493   1419.45068     708.0920     434.6493
   1419.43542     709.4715     435.1538   1419.43542     709.4715     435.1538
   1419.42017     708.2569     434.8251   1419.42017     708.2569     434.8251
   1419.40491     709.4927     434.9829   1419.40491     709.4927     434.9829
   1419.38965     709.6084     435.3837   1419.38965     709.6084     435.3837
   1419.37439     710.1398     435.3586   1419.37439     710.1398     435.3586
   1419.35913     709.3389     435.0483   1419.35913     709.3389     435.0483
   1419.34387     710.6920     435.2402   1419.34387     710.6920     435.2402
   1419.32861     711.2767     436.4500   1419.32861     711.2767     436.4500
   1419.31335     710.4541     435.0029   1419.31335     710.4541     435.0029
   1419.29810     711.0391     435.6016   1419.29810     711.0391     435.6016
   1419.28284     711.9232     436.3830   1419.28284     711.9232     436.3830
   1419.26758     713.2219     437.3238   1419.26758     713.2219     437.3238
   1419.25232     712.4526     436.6110   1419.25232     712.4526     436.6110
   1419.23706     714.0925     436.6766   1419.23706     714.0925     436.6766
   1419.22180     713.0118     436.9013   1419.22180     713.0118     436.9013
   1419.20654     714.2653     437.3309   1419.20654     714.2653     437.3309
   1419.19128     714.6409     438.1175   1419.19128     714.6409     438.1175
   1419.17603     714.9731     437.9322   1419.17603     714.9731     437.9322
   1419.16077     714.6819     437.2796   1419.16077     714.6819     437.2796
   1419.14551     714.6910     437.8687   1419.14551     714.6910     437.8687
   1419.13025     715.7565     438.0921   1419.13025     715.7565     438.0921
   1419.11499     716.7123     438.9669   1419.11499     716.7123     438.9669
   1419.09973     716.7286     439.9121   1419.09973     716.7286     439.9121
   1419.08447     717.5401     439.6564   1419.08447     717.5401     439.6564
   1419.06921     716.1822     439.5046   1419.06921     716.1822     439.5046
   1419.05396     718.0441     441.0456   1419.05396     718.0441     441.0456
   1419.03870     719.2771     440.9395   1419.03870     719.2771     440.9395
   1419.02344     719.2354     441.6384   1419.02344     719.2354     441.6384
   1419.00818     719.5062     441.3216   1419.00818     719.5062     441.3216
   1418.99292     719.3695     442.1619   1418.99292     719.3695     442.1619
   1418.97766     719.2662     442.4698   1418.97766     719.2662     442.4698
   1418.96240     721.1239     442.6841   1418.96240     721.1239     442.6841
   1418.94714     721.7396     442.8146   1418.94714     721.7396     442.8146
   1418.93188     722.3643     443.9196   1418.93188     722.3643     443.9196
   1418.91663     721.9054     444.3261   1418.91663     721.9054     444.3261
   1418.90137     722.6588     444.5196   1418.90137     722.6588     444.5196
   1418.88611     723.4037     445.4937   1418.88611     723.4037     445.4937
   1418.87085     723.8538     445.8997   1418.87085     723.8538     445.8997
   1418.85559     724.2997     446.7812   1418.85559     724.2997     446.7812
   1418.84033     725.1982     447.0687   1418.84033     725.1982     447.0687
   1418.82507     725.2629     446.8120   1418.82507     725.2629     446.8120
   1418.80981     725.7439     448.1753   1418.80981     725.7439     448.1753
   1418.79456     726.4004     448.7813   1418.79456     726.4004     448.7813
   1418.77930     727.6146     449.2598   1418.77930     727.6146     449.2598
   1418.76404     728.2662     449.6925   1418.76404     728.2662     449.6925
   1418.74878     728.7422     450.3062   1418.74878     728.7422     450.3062
   1418.73352     728.6484     451.2828   1418.73352     728.6484     451.2828
   1418.71826     730.9971     451.9140   1418.71826     730.9971     451.9140
   1418.70300     730.0735     452.6072   1418.70300     730.0735     452.6072
   1418.68774     730.9139     453.0294   1418.68774     730.9139     453.0294
   1418.67249     731.3382     454.0155   1418.67249     731.3382     454.0155
   1418.65723     731.5436     454.5616   1418.65723     731.5436     454.5616
   1418.64197     733.6517     454.4681   1418.64197     733.6517     454.4681
   1418.62671     733.1235     456.0760   1418.62671     733.1235     456.0760
   1418.61145     733.6123     456.5134   1418.61145     733.6123     456.5134
   1418.59619     734.3055     456.5100   1418.59619     734.3055     456.5100
   1418.58093     735.8024     457.9411   1418.58093     735.8024     457.9411
   1418.56567     735.9665     458.8907   1418.56567     735.9665     458.8907
   1418.55042     736.7385     458.8894   1418.55042     736.7385     458.8894
   1418.53516     737.4678     460.0140   1418.53516     737.4678     460.0140
   1418.51990     738.3925     460.7765   1418.51990     738.3925     460.7765
   1418.50464     740.0251     461.8159   1418.50464     740.0251     461.8159
   1418.48938     739.6116     462.5207   1418.48938     739.6116     462.5207
   1418.47412     740.5970     462.6561   1418.47412     740.5970     462.6561
   1418.45886     741.1966     464.6686   1418.45886     741.1966     464.6686
   1418.44360     741.0099     464.3918   1418.44360     741.0099     464.3918
   1418.42834     742.7516     465.2871   1418.42834     742.7516     465.2871
   1418.41309     743.0359     466.8002   1418.41309     743.0359     466.8002
   1418.39783     743.4861     467.8423   1418.39783     743.4861     467.8423
   1418.38257     743.8638     468.7564   1418.38257     743.8638     468.7564
   1418.36731     744.9208     469.7457   1418.36731     744.9208     469.7457
   1418.35205     746.0446     469.2687   1418.35205     746.0446     469.2687
   1418.33679     747.5142     471.4537   1418.33679     747.5142     471.4537
   1418.32153     748.7936     472.0075   1418.32153     748.7936     472.0075
   1418.30627     748.4348     472.7227   1418.30627     748.4348     472.7227
   1418.29102     748.6323     473.7081   1418.29102     748.6323     473.7081
   1418.27576     748.4924     474.5092   1418.27576     748.4924     474.5092
   1418.26050     751.3781     476.4282   1418.26050     751.3781     476.4282
   1418.24524     752.2296     476.8527   1418.24524     752.2296     476.8527
   1418.22998     752.9480     476.8183   1418.22998     752.9480     476.8183
   1418.21472     752.8469     478.5902   1418.21472     752.8469     478.5902
   1418.19946     754.8763     479.7958   1418.19946     754.8763     479.7958
   1418.18420     754.5005     480.0982   1418.18420     754.5005     480.0982
   1418.16895     755.3090     481.3119   1418.16895     755.3090     481.3119
   1418.15369     756.9510     482.4570   1418.15369     756.9510     482.4570
   1418.13843     757.6940     482.7246   1418.13843     757.6940     482.7246
   1418.12317     758.1388     483.6113   1418.12317     758.1388     483.6113
   1418.10791     759.7685     485.7088   1418.10791     759.7685     485.7088
   1418.09265     759.9193     486.2903   1418.09265     759.9193     486.2903
   1418.07739     760.9146     486.8298   1418.07739     760.9146     486.8298
   1418.06213     760.0903     488.6957   1418.06213     760.0903     488.6957
   1418.04688     762.1863     489.0851   1418.04688     762.1863     489.0851
   1418.03162     763.4907     490.3951   1418.03162     763.4907     490.3951
   1418.01636     763.9124     491.3846   1418.01636     763.9124     491.3846
   1418.00110     764.6974     491.9338   1418.00110     764.6974     491.9338
   1417.98584     765.2457     493.2772   1417.98584     765.2457     493.2772
   1417.97058     766.5472     494.5621   1417.97058     766.5472     494.5621
   1417.95532     767.8931     495.4797   1417.95532     767.8931     495.4797
   1417.94006     768.2584     496.2334   1417.94006     768.2584     496.2334
   1417.92480     768.3600     497.8913   1417.92480     768.3600     497.8913
   1417.90955     770.7247     498.9954   1417.90955     770.7247     498.9954
   1417.89429     771.9567     499.9895   1417.89429     771.9567     499.9895
   1417.87903     772.5543     501.3181   1417.87903     772.5543     501.3181
   1417.86377     771.7451     501.6975   1417.86377     771.7451     501.6975
   1417.84851     773.9896     503.9859   1417.84851     773.9896     503.9859
   1417.83325     773.9490     504.5511   1417.83325     773.9490     504.5511
   1417.81799     775.1635     505.5883   1417.81799     775.1635     505.5883
   1417.80273     775.3041     506.6363   1417.80273     775.3041     506.6363
   1417.78748     778.0162     506.9162   1417.78748     778.0162     506.9162
   1417.77222     777.8528     508.7518   1417.77222     777.8528     508.7518
   1417.75696     779.5062     508.7114   1417.75696     779.5062     508.7114
   1417.74170     780.6178     510.6347   1417.74170     780.6178     510.6347
   1417.72644     780.2524     511.9580   1417.72644     780.2524     511.9580
   1417.71118     781.9576     512.8493   1417.71118     781.9576     512.8493
   1417.69592     782.4811     513.6631   1417.69592     782.4811     513.6631
   1417.68066     783.1505     516.4696   1417.68066     783.1505     516.4696
   1417.66541     784.7747     516.5214   1417.66541     784.7747     516.5214
   1417.65015     785.4864     517.9631   1417.65015     785.4864     517.9631
   1417.63489     785.2344     517.8745   1417.63489     785.2344     517.8745
   1417.61963     787.7965     519.9775   1417.61963     787.7965     519.9775
   1417.60437     787.9640     520.8550   1417.60437     787.9640     520.8550
   1417.58911     788.9286     522.6656   1417.58911     788.9286     522.6656
   1417.57385     789.7037     523.5327   1417.57385     789.7037     523.5327
   1417.55859     790.4865     524.2525   1417.55859     790.4865     524.2525
   1417.54333     791.7247     525.2505   1417.54333     791.7247     525.2505
   1417.52808     793.1786     526.9008   1417.52808     793.1786     526.9008
   1417.51282     792.1442     527.4382   1417.51282     792.1442     527.4382
   1417.49756     794.6010     528.7964   1417.49756     794.6010     528.7964
   1417.48230     794.2816     529.6599   1417.48230     794.2816     529.6599
   1417.46704     796.5936     531.4454   1417.46704     796.5936     531.4454
   1417.45178     796.4222     532.3847   1417.45178     796.4222     532.3847
   1417.43652     798.5101     533.6467   1417.43652     798.5101     533.6467
   1417.42126     798.6928     533.8330   1417.42126     798.6928     533.8330
   1417.40601     798.6544     536.0048   1417.40601     798.6544     536.0048
   1417.39075     798.0940     536.2780   1417.39075     798.0940     536.2780
   1417.37549     801.3810     538.3101   1417.37549     801.3810     538.3101
   1417.36023     800.9604     539.2538   1417.36023     800.9604     539.2538
   1417.34497     803.0833     539.7045   1417.34497     803.0833     539.7045
   1417.32971     803.8015     541.1447   1417.32971     803.8015     541.1447
   1417.31445     803.4252     541.0189   1417.31445     803.4252     541.0189
   1417.29919     803.9863     541.9931   1417.29919     803.9863     541.9931
   1417.28394     806.4664     543.1506   1417.28394     806.4664     543.1506
   1417.26868     805.9610     544.9327   1417.26868     805.9610     544.9327
   1417.25342     806.5129     545.7054   1417.25342     806.5129     545.7054
   1417.23816     807.5385     546.8018   1417.23816     807.5385     546.8018
   1417.22290     808.8163     548.2202   1417.22290     808.8163     548.2202
   1417.20764     809.6741     548.3912   1417.20764     809.6741     548.3912
   1417.19238     808.4039     548.3246   1417.19238     808.4039     548.3246
   1417.17712     810.6931     550.4901   1417.17712     810.6931     550.4901
   1417.16187     811.8569     551.7026   1417.16187     811.8569     551.7026
   1417.14661     811.5543     553.2300   1417.14661     811.5543     553.2300
   1417.13135     812.3109     553.8470   1417.13135     812.3109     553.8470
   1417.11609     814.2265     555.0202   1417.11609     814.2265     555.0202
   1417.10083     814.8502     555.1088   1417.10083     814.8502     555.1088
   1417.08557     814.9874     555.9196   1417.08557     814.9874     555.9196
   1417.07031     815.6982     556.5290   1417.07031     815.6982     556.5290
   1417.05505     814.7186     558.5928   1417.05505     814.7186     558.5928
   1417.03979     815.7339     558.8538   1417.03979     815.7339     558.8538
   1417.02454     818.2749     559.8254   1417.02454     818.2749     559.8254
   1417.00928     817.8191     560.1261   1417.00928     817.8191     560.1261
   1416.99402     818.5515     560.5792   1416.99402     818.5515     560.5792
   1416.97876     820.1600     560.6017   1416.97876     820.1600     560.6017
   1416.96350     819.7241     562.5964   1416.96350     819.7241     562.5964
   1416.94824     819.9730     562.5245   1416.94824     819.9730     562.5245
   1416.93298     820.6036     563.5109   1416.93298     820.6036     563.5109
   1416.91772     821.4753     564.2324   1416.91772     821.4753     564.2324
   1416.90247     821.4102     565.0701   1416.90247     821.4102     565.0701
   1416.88721     821.9717     565.0852   1416.88721     821.9717     565.0852
   1416.87195     823.4821     565.4781   1416.87195     823.4821     565.4781
   1416.85669     822.2975     565.9230   1416.85669     822.2975     565.9230
   1416.84143     823.7930     567.4072   1416.84143     823.7930     567.4072
   1416.82617     824.3610     566.6722   1416.82617     824.3610     566.6722
   1416.81091     823.8061     568.3284   1416.81091     823.8061     568.3284
   1416.79565     825.4807     569.0536   1416.79565     825.4807     569.0536
   1416.78040     824.7200     568.1150   1416.78040     824.7200     568.1150
   1416.76514     824.9795     570.1068   1416.76514     824.9795     570.1068
   1416.74988     825.7501     569.7607   1416.74988     825.7501     569.7607
   1416.73462     826.3010     570.1978   1416.73462     826.3010     570.1978
   1416.71936     826.9120     570.6597   1416.71936     826.9120     570.6597
   1416.70410     826.0422     570.4456   1416.70410     826.0422     570.4456
   1416.68884     826.7510     570.8901   1416.68884     826.7510     570.8901
   1416.67358     827.4926     570.8712   1416.67358     827.4926     570.8712
   1416.65833     827.2743     572.2127   1416.65833     827.2743     572.2127
   1416.64307     826.7938     571.9189   1416.64307     826.7938     571.9189
   1416.62781     826.2907     573.1534   1416.62781     826.2907     573.1534
   1416.61255     828.7666     571.4781   1416.61255     828.7666     571.4781
   1416.59729     829.7636     572.0897   1416.59729     829.7636     572.0897
   1416.58203     828.2383     572.2947   1416.58203     828.2383     572.2947
   1416.56677     827.9836     571.7167   1416.56677     827.9836     571.7167
   1416.55151     828.6143     572.5981   1416.55151     828.6143     572.5981
   1416.53625     827.6708     572.8602   1416.53625     827.6708     572.8602
   1416.52100     828.6151     571.7048   1416.52100     828.6151     571.7048
   1416.50574     828.0777     571.6187   1416.50574     828.0777     571.6187
   1416.49048     827.9686     572.4152   1416.49048     827.9686     572.4152
   1416.47522     828.3838     572.4293   1416.47522     828.3838     572.4293
   1416.45996     827.6355     571.3022   1416.45996     827.6355     571.3022
   1416.44470     828.5966     571.8961   1416.44470     828.5966     571.8961
   1416.42944     828.1237     572.1038   1416.42944     828.1237     572.1038
   1416.41418     827.9800     570.8674   1416.41418     827.9800     570.8674
   1416.39893     828.2295     571.7068   1416.39893     828.2295     571.7068
   1416.38367     828.4815     570.2774   1416.38367     828.4815     570.2774
   1416.36841     828.2272     571.1975   1416.36841     828.2272     571.1975
   1416.35315     827.9716     570.0486   1416.35315     827.9716     570.0486
   1416.33789     827.7157     570.0825   1416.33789     827.7157     570.0825
   1416.32263     826.9463     570.1236   1416.32263     826.9463     570.1236
   1416.30737     826.8221     568.7429   1416.30737     826.8221     568.7429
   1416.29211     825.6752     568.9059   1416.29211     825.6752     568.9059
   1416.27686     826.8914     569.0157   1416.27686     826.8914     569.0157
   1416.26160     826.3031     568.4514   1416.26160     826.3031     568.4514
   1416.24634     826.6146     568.0245   1416.24634     826.6146     568.0245
   1416.23108     827.3322     567.7972   1416.23108     827.3322     567.7972
   1416.21582     828.1211     566.7075   1416.21582     828.1211     566.7075
   1416.20056     826.6344     567.7943   1416.20056     826.6344     567.7943
   1416.18530     826.5121     565.5322   1416.18530     826.5121     565.5322
   1416.17004     824.4068     566.5823   1416.17004     824.4068     566.5823
   1416.15479     824.1836     564.7980   1416.15479     824.1836     564.7980
   1416.13953     825.4928     563.5225   1416.13953     825.4928     563.5225
   1416.12427     824.9708     563.6795   1416.12427     824.9708     563.6795
   1416.10901     823.0494     563.6371   1416.10901     823.0494     563.6371
   1416.09375     824.3806     562.7287   1416.09375     824.3806     562.7287
   1416.07849     822.5471     561.1605   1416.07849     822.5471     561.1605
   1416.06323     822.1116     561.6130   1416.06323     822.1116     561.6130
   1416.04797     823.3994     561.0338   1416.04797     823.3994     561.0338
   1416.03271     822.3532     560.4278   1416.03271     822.3532     560.4278
   1416.01746     821.5473     559.1603   1416.01746     821.5473     559.1603
   1416.00220     820.3636     558.5882   1416.00220     820.3636     558.5882
   1415.98694     820.4034     557.4206   1415.98694     820.4034     557.4206
   1415.97168     819.3075     556.7783   1415.97168     819.3075     556.7783
   1415.95642     819.5587     556.5212   1415.95642     819.5587     556.5212
   1415.94116     817.4071     555.3468   1415.94116     817.4071     555.3468
   1415.92590     819.1248     555.7250   1415.92590     819.1248     555.7250
   1415.91064     818.3413     554.1296   1415.91064     818.3413     554.1296
   1415.89539     817.0594     553.7076   1415.89539     817.0594     553.7076
   1415.88013     816.6026     553.0851   1415.88013     816.6026     553.0851
   1415.86487     815.6458     553.0008   1415.86487     815.6458     553.0008
   1415.84961     816.6832     550.8712   1415.84961     816.6832     550.8712
   1415.83435     815.8452     551.2230   1415.83435     815.8452     551.2230
   1415.81909     813.8386     549.3195   1415.81909     813.8386     549.3195
   1415.80383     813.2889     549.7692   1415.80383     813.2889     549.7692
   1415.78857     812.5654     547.9500   1415.78857     812.5654     547.9500
   1415.77332     812.4714     547.5244   1415.77332     812.4714     547.5244
   1415.75806     811.5981     546.9048   1415.75806     811.5981     546.9048
   1415.74280     811.5307     545.7429   1415.74280     811.5307     545.7429
   1415.72754     809.9739     545.1422   1415.72754     809.9739     545.1422
   1415.71228     807.9265     544.1199   1415.71228     807.9265     544.1199
   1415.69702     809.4901     543.0934   1415.69702     809.4901     543.0934
   1415.68176     806.7700     542.6179   1415.68176     806.7700     542.6179
   1415.66650     807.7846     541.7535   1415.66650     807.7846     541.7535
   1415.65125     807.0142     540.4684   1415.65125     807.0142     540.4684
   1415.63599     806.3292     540.3474   1415.63599     806.3292     540.3474
   1415.62073     805.0701     539.5871   1415.62073     805.0701     539.5871
   1415.60547     803.2578     538.4248   1415.60547     803.2578     538.4248
   1415.59021     804.0375     538.0381   1415.59021     804.0375     538.0381
   1415.57495     802.9988     537.1827   1415.57495     802.9988     537.1827
   1415.55969     802.1334     535.6889   1415.55969     802.1334     535.6889
   1415.54443     799.4576     534.9927   1415.54443     799.4576     534.9927
   1415.52917     801.3180     534.4767   1415.52917     801.3180     534.4767
   1415.51392     798.5524     533.2797   1415.51392     798.5524     533.2797
   1415.49866     798.1870     532.3006   1415.49866     798.1870     532.3006
   1415.48340     797.2465     530.7180   1415.48340     797.2465     530.7180
   1415.46814     795.8203     529.7618   1415.46814     795.8203     529.7618
   1415.45288     798.4626     529.0035   1415.45288     798.4626     529.0035
   1415.43762     794.0159     528.3015   1415.43762     794.0159     528.3015
   1415.42236     792.6331     527.8398   1415.42236     792.6331     527.8398
   1415.40710     792.3750     526.6567   1415.40710     792.3750     526.6567
   1415.39185     791.2058     525.8703   1415.39185     791.2058     525.8703
   1415.37659     790.8837     525.0482   1415.37659     790.8837     525.0482
   1415.36133     789.3235     523.7026   1415.36133     789.3235     523.7026
   1415.34607     789.3143     522.3817   1415.34607     789.3143     522.3817
   1415.33081     786.7019     522.1924   1415.33081     786.7019     522.1924
   1415.31555     786.2550     520.9832   1415.31555     786.2550     520.9832
   1415.30029     783.3392     520.2787   1415.30029     783.3392     520.2787
   1415.28503     783.1846     518.6937   1415.28503     783.1846     518.6937
   1415.26978     782.1832     517.4275   1415.26978     782.1832     517.4275
   1415.25452     781.2725     516.5270   1415.25452     781.2725     516.5270
   1415.23926     779.3193     515.4683   1415.23926     779.3193     515.4683
   1415.22400     777.5597     514.7043   1415.22400     777.5597     514.7043
   1415.20874     777.5880     512.8218   1415.20874     777.5880     512.8218
   1415.19348     775.9868     512.2203   1415.19348     775.9868     512.2203
   1415.17822     773.8136     511.3153   1415.17822     773.8136     511.3153
   1415.16296     772.4071     510.0026   1415.16296     772.4071     510.0026
   1415.14771     770.8063     509.6836   1415.14771     770.8063     509.6836
   1415.13245     769.3273     508.1028   1415.13245     769.3273     508.1028
   1415.11719     768.0950     506.7303   1415.11719     768.0950     506.7303
   1415.10193     766.9807     506.2913   1415.10193     766.9807     506.2913
   1415.08667     766.5348     504.0854   1415.08667     766.5348     504.0854
   1415.07141     764.2367     503.7912   1415.07141     764.2367     503.7912
   1415.05615     762.5403     502.4015   1415.05615     762.5403     502.4015
   1415.04089     761.7015     501.1583   1415.04089     761.7015     501.1583
   1415.02563     759.4659     500.2346   1415.02563     759.4659     500.2346
   1415.01038     757.8195     498.8183   1415.01038     757.8195     498.8183
   1414.99512     755.2596     497.8239   1414.99512     755.2596     497.8239
   1414.97986     755.5964     495.9607   1414.97986     755.5964     495.9607
   1414.96460     752.7720     496.2861   1414.96460     752.7720     496.2861
   1414.94934     751.2800     494.7625   1414.94934     751.2800     494.7625
   1414.93408     749.8055     493.2288   1414.93408     749.8055     493.2288
   1414.91882     748.1274     492.1775   1414.91882     748.1274     492.1775
   1414.90356     746.0804     490.7278   1414.90356     746.0804     490.7278
   1414.88831     745.2286     489.0603   1414.88831     745.2286     489.0603
   1414.87305     742.9885     488.2663   1414.87305     742.9885     488.2663
   1414.85779     739.4681     486.3646   1414.85779     739.4681     486.3646
   1414.84253     738.9973     484.8109   1414.84253     738.9973     484.8109
   1414.82727     737.6161     484.7812   1414.82727     737.6161     484.7812
   1414.81201     735.1865     482.1620   1414.81201     735.1865     482.1620
   1414.79675     733.9945     481.6276   1414.79675     733.9945     481.6276
   1414.78149     731.6454     480.1878   1414.78149     731.6454     480.1878
   1414.76624     728.1443     478.6745   1414.76624     728.1443     478.6745
   1414.75098     726.9364     477.4901   1414.75098     726.9364     477.4901
   1414.73572     723.8519     475.6836   1414.73572     723.8519     475.6836
   1414.72046     723.2091     474.5118   1414.72046     723.2091     474.5118
   1414.70520     721.9519     473.4103   1414.70520     721.9519     473.4103
   1414.68994     719.6410     472.1527   1414.68994     719.6410     472.1527
   1414.67468     717.7153     470.8445   1414.67468     717.7153     470.8445
   1414.65942     716.1013     469.5209   1414.65942     716.1013     469.5209
   1414.64417     713.2394     467.1484   1414.64417     713.2394     467.1484
   1414.62891     711.3163     466.1685   1414.62891     711.3163     466.1685
   1414.61365     709.3239     464.6669   1414.61365     709.3239     464.6669
   1414.59839     705.9938     463.3990   1414.59839     705.9938     463.3990
   1414.58313     703.7905     461.9562   1414.58313     703.7905     461.9562
   1414.56787     701.6730     460.6089   1414.56787     701.6730     460.6089
   1414.55261     700.4515     459.1381   1414.55261     700.4515     459.1381
   1414.53735     697.3841     458.6973   1414.53735     697.3841     458.6973
   1414.52209     695.7726     457.0420   1414.52209     695.7726     457.0420
   1414.50684     692.8555     455.1789   1414.50684     692.8555     455.1789
   1414.49158     690.1179     453.1939   1414.49158     690.1179     453.1939
   1414.47632     687.6758     452.4096   1414.47632     687.6758     452.4096
   1414.46106     685.8069     451.1692   1414.46106     685.8069     451.1692
   1414.44580     683.9641     448.9640   1414.44580     683.9641     448.9640
   1414.43054     680.9795     446.5297   1414.43054     680.9795     446.5297
   1414.41528     678.2030     445.7148   1414.41528     678.2030     445.7148
   1414.40002     674.9327     444.3326   1414.40002     674.9327     444.3326
   1414.38477     673.5488     442.9256   1414.38477     673.5488     442.9256
   1414.36951     669.5036     441.4239   1414.36951     669.5036     441.4239
   1414.35425     668.1690     439.5463   1414.35425     668.1690     439.5463
   1414.33899     665.7206     439.0953   1414.33899     665.7206     439.0953
   1414.32373     664.3488     436.4319   1414.32373     664.3488     436.4319
   1414.30847     662.2916     434.0987   1414.30847     662.2916     434.0987
   1414.29321     657.4461     433.7948   1414.29321     657.4461     433.7948
   1414.27795     655.2084     432.2829   1414.27795     655.2084     432.2829
   1414.26270     652.9218     429.8516   1414.26270     652.9218     429.8516
   1414.24744     650.6256     429.5816   1414.24744     650.6256     429.5816
   1414.23218     647.1672     426.9464   1414.23218     647.1672     426.9464
   1414.21692     645.2372     425.5851   1414.21692     645.2372     425.5851
   1414.20166     642.2624     423.2554   1414.20166     642.2624     423.2554
   1414.18640     638.7594     422.1164   1414.18640     638.7594     422.1164
   1414.17114     636.5828     420.7019   1414.17114     636.5828     420.7019
   1414.15588     634.9847     418.5618   1414.15588     634.9847     418.5618
   1414.14062     631.0118     416.5020   1414.14062     631.0118     416.5020
   1414.12537     628.2869     415.4077   1414.12537     628.2869     415.4077
   1414.11011     624.9766     414.0866   1414.11011     624.9766     414.0866
   1414.09485     623.0653     411.9640   1414.09485     623.0653     411.9640
   1414.07959     618.8194     409.9911   1414.07959     618.8194     409.9911
   1414.06433     616.3897     408.0589   1414.06433     616.3897     408.0589
   1414.04907     613.3156     406.0627   1414.04907     613.3156     406.0627
   1414.03381     611.5489     404.5894   1414.03381     611.5489     404.5894
   1414.01855     609.2696     403.9841   1414.01855     609.2696     403.9841
   1414.00330     625.0047     408.2349   1414.00330     625.0047     408.2349
   1413.98804     604.1047     400.0082   1413.98804     604.1047     400.0082
   1413.97278     600.0302     398.6654   1413.97278     600.0302     398.6654
   1413.95752     596.6118     396.6529   1413.95752     596.6118     396.6529
   1413.94226     593.5089     395.2158   1413.94226     593.5089     395.2158
   1413.92700     590.8093     393.1226   1413.92700     590.8093     393.1226
   1413.91174     587.9285     390.9420   1413.91174     587.9285     390.9420
   1413.89648     584.5819     389.2859   1413.89648     584.5819     389.2859
   1413.88123     581.7205     388.2539   1413.88123     581.7205     388.2539
   1413.86597     579.5491     386.2972   1413.86597     579.5491     386.2972
   1413.85071     575.6257     384.9614   1413.85071     575.6257     384.9614
   1413.83545     573.1390     382.6323   1413.83545     573.1390     382.6323
   1413.82019     569.5707     381.1889   1413.82019     569.5707     381.1889
   1413.80493     567.2903     378.7050   1413.80493     567.2903     378.7050
   1413.78967     564.9553     377.6634   1413.78967     564.9553     377.6634
   1413.77441     561.0010     375.6250   1413.77441     561.0010     375.6250
   1413.75916     558.0821     373.5840   1413.75916     558.0821     373.5840
   1413.74390     554.4714     371.6175   1413.74390     554.4714     371.6175
   1413.72864     551.7188     370.1487   1413.72864     551.7188     370.1487
   1413.71338     549.5062     368.8678   1413.71338     549.5062     368.8678
   1413.69812     545.1607     366.4934   1413.69812     545.1607     366.4934
   1413.68286     542.8669     364.5402   1413.68286     542.8669     364.5402
   1413.66760     540.2305     363.0947   1413.66760     540.2305     363.0947
   1413.65234     536.7932     361.5723   1413.65234     536.7932     361.5723
   1413.63708     534.1552     359.4366   1413.63708     534.1552     359.4366
   1413.62183     531.2031     358.0988   1413.62183     531.2031     358.0988
   1413.60657     527.4297     355.9333   1413.60657     527.4297     355.9333
   1413.59131     524.9506     354.9650   1413.59131     524.9506     354.9650
   1413.57605     521.7923     353.0916   1413.57605     521.7923     353.0916
   1413.56079     519.7469     351.1257   1413.56079     519.7469     351.1257
   1413.54553     515.9440     349.8293   1413.54553     515.9440     349.8293
   1413.53027     512.7933     348.0597   1413.53027     512.7933     348.0597
   1413.51501     509.9376     346.5805   1413.51501     509.9376     346.5805
   1413.49976     507.4802     344.3038   1413.49976     507.4802     344.3038
   1413.48450     504.0327     343.1591   1413.48450     504.0327     343.1591
   1413.46924     501.6378     341.5395   1413.46924     501.6378     341.5395
   1413.45398     498.9039     340.2237   1413.45398     498.9039     340.2237
   1413.43872     495.2500     338.6697   1413.43872     495.2500     338.6697
   1413.42346     492.6715     336.5598   1413.42346     492.6715     336.5598
   1413.40820     490.2305     335.0778   1413.40820     490.2305     335.0778
   1413.39294     487.1391     333.4539   1413.39294     487.1391     333.4539
   1413.37769     484.9681     331.7355   1413.37769     484.9681     331.7355
   1413.36243     481.4884     329.9966   1413.36243     481.4884     329.9966
   1413.34717     479.2733     328.0109   1413.34717     479.2733     328.0109
   1413.33191     476.0188     326.7937   1413.33191     476.0188     326.7937
   1413.31665     473.2059     325.0051   1413.31665     473.2059     325.0051
   1413.30139     471.0188     323.7462   1413.30139     471.0188     323.7462
   1413.28613     467.5173     323.0255   1413.28613     467.5173     323.0255
   1413.27087     464.5650     320.9138   1413.27087     464.5650     320.9138
   1413.25562     463.1516     320.0574   1413.25562     463.1516     320.0574
   1413.24036     458.6824     317.5863   1413.24036     458.6824     317.5863
   1413.22510     457.6307     316.3852   1413.22510     457.6307     316.3852
   1413.20984     454.9304     315.0932   1413.20984     454.9304     315.0932
   1413.19458     451.9917     313.4034   1413.19458     451.9917     313.4034
   1413.17932     449.6215     312.6089   1413.17932     449.6215     312.6089
   1413.16406     447.4753     310.5350   1413.16406     447.4753     310.5350
   1413.14880     444.5171     309.7669   1413.14880     444.5171     309.7669
   1413.13354     442.7249     308.0448   1413.13354     442.7249     308.0448
   1413.11829     440.1294     306.9434   1413.11829     440.1294     306.9434
   1413.10303     438.1965     305.4794   1413.10303     438.1965     305.4794
   1413.08777     434.5526     303.9637   1413.08777     434.5526     303.9637
   1413.07251     432.6072     302.8520   1413.07251     432.6072     302.8520
   1413.05725     430.4977     302.0591   1413.05725     430.4977     302.0591
   1413.04199     427.9858     300.3570   1413.04199     427.9858     300.3570
   1413.02673     425.5096     299.5638   1413.02673     425.5096     299.5638
   1413.01147     423.6245     297.7506   1413.01147     423.6245     297.7506
   1412.99622     421.8802     297.1014   1412.99622     421.8802     297.1014
   1412.98096     419.4582     296.4972   1412.98096     419.4582     296.4972
   1412.96570     417.8555     295.2707   1412.96570     417.8555     295.2707
   1412.95044     415.8067     294.3489   1412.95044     415.8067     294.3489
   1412.93518     413.2151     292.9194   1412.93518     413.2151     292.9194
   1412.91992     411.2062     292.6286   1412.91992     411.2062     292.6286
   1412.90466     410.1063     291.1142   1412.90466     410.1063     291.1142
   1412.88940     407.7905     290.0269   1412.88940     407.7905     290.0269
   1412.87415     406.2523     289.2856   1412.87415     406.2523     289.2856
   1412.85889     404.7747     288.4879   1412.85889     404.7747     288.4879
   1412.84363     402.2227     287.9393   1412.84363     402.2227     287.9393
   1412.82837     400.9565     287.1137   1412.82837     400.9565     287.1137
   1412.81311     399.2594     286.2382   1412.81311     399.2594     286.2382
   1412.79785     397.6127     285.5309   1412.79785     397.6127     285.5309
   1412.78259     396.2352     284.7677   1412.78259     396.2352     284.7677
   1412.76733     394.8590     284.0561   1412.76733     394.8590     284.0561
   1412.75208     393.4173     283.4357   1412.75208     393.4173     283.4357
   1412.73682     392.5329     282.7835   1412.73682     392.5329     282.7835
   1412.72156     390.3430     281.9757   1412.72156     390.3430     281.9757
   1412.70630     389.5023     282.0737   1412.70630     389.5023     282.0737
   1412.69104     388.3731     281.3998   1412.69104     388.3731     281.3998
   1412.67578     387.0390     280.4267   1412.67578     387.0390     280.4267
   1412.66052     385.8013     280.1219   1412.66052     385.8013     280.1219
   1412.64526     384.9308     280.0974   1412.64526     384.9308     280.0974
   1412.63000     383.3437     279.3417   1412.63000     383.3437     279.3417
   1412.61475     382.5481     279.1139   1412.61475     382.5481     279.1139
   1412.59949     381.6508     279.1846   1412.59949     381.6508     279.1846
   1412.58423     381.7442     278.8575   1412.58423     381.7442     278.8575
   1412.56897     380.6624     278.1459   1412.56897     380.6624     278.1459
   1412.55371     379.3067     278.3423   1412.55371     379.3067     278.3423
   1412.53845     378.3878     278.4443   1412.53845     378.3878     278.4443
   1412.52319     378.0189     277.9393   1412.52319     378.0189     277.9393
   1412.50793     377.8816     277.7811   1412.50793     377.8816     277.7811
   1412.49268     377.6110     277.7170   1412.49268     377.6110     277.7170
   1412.47742     376.3813     278.4098   1412.47742     376.3813     278.4098
   1412.46216     375.8976     278.2703   1412.46216     375.8976     278.2703
   1412.44690     375.7863     278.6661   1412.44690     375.7863     278.6661
   1412.43164     375.9109     278.6942   1412.43164     375.9109     278.6942
   1412.41638     374.5987     278.5405   1412.41638     374.5987     278.5405
   1412.40112     374.9450     278.6977   1412.40112     374.9450     278.6977
   1412.38586     374.4336     279.0737   1412.38586     374.4336     279.0737
   1412.37061     374.4679     279.3657   1412.37061     374.4679     279.3657
   1412.35535     374.7776     280.0379   1412.35535     374.7776     280.0379
   1412.34009     374.8009     280.1126   1412.34009     374.8009     280.1126
   1412.32483     374.1068     280.5053   1412.32483     374.1068     280.5053
   1412.30957     375.3682     280.9520   1412.30957     375.3682     280.9520
   1412.29431     375.0158     281.7672   1412.29431     375.0158     281.7672
   1412.27905     375.0655     282.1118   1412.27905     375.0655     282.1118
   1412.26379     376.0681     282.8170   1412.26379     376.0681     282.8170
   1412.24854     375.6828     283.4344   1412.24854     375.6828     283.4344
   1412.23328     376.4607     284.1457   1412.23328     376.4607     284.1457
   1412.21802     377.2028     284.8525   1412.21802     377.2028     284.8525
   1412.20276     377.7849     285.7149   1412.20276     377.7849     285.7149