#     FILENAME=!Skynet_57528_lach-hhg-177_20564_21000.cyb.fits
#     BASENAME=Skynet_57528_lach-hhg-177_20564_21000
#     SRC_NAME=lach-hhg-177
#     OBSERVER=hhgmadison16_9500
#     DATE_OBS=2016-05-20T18:34:07.750
#        OBSID=20564
#      SCANNUM=21000
#          MJD=57528.7747
#          UTC=66936
#     SCANTYPE=track
#     DATAMODE=HIRES
#     TUNEFREQ=1420.0000
# Actual_FREQ1=1420.0000
# Actual_FREQ2=1420.0000
#    LO1Tuning=6870.000
#     RFFILTER=1355_1435
#        OBSBW=-15.6250
#        NCHAN=1024 
#        FOCUS=37.0709
#           RA=05:38:14.72
#          DEC=31:29:03.43
#      RA(hrs)=5.637400
#     DEC(deg)=31.484300
#    AZIM(deg)=136.802
#    ELEV(deg)=80.752
#     IFattens=10.00, 9.00
#      WARNING=None
#    TCAL_XL1=7.9635
#    TCAL_YR1=9.1340
#    TCAL_XL2=7.9635
#    TCAL_YR2=9.1340
#     TRX_XL1=11.7060
#     TRX_YR1=11.7060
#     TRX_XL2=11.7060
#     TRX_YR2=11.7060
#        TAVE=1.0000
#Freq1(MHz)          XL1          YR1  Freq2(MHz)          XL2          YR2 

   1427.81250     379.6235     345.7029   1427.81250     379.6235     345.7029
   1427.79724     379.6697     347.7560   1427.79724     379.6697     347.7560
   1427.78198     380.7721     348.6691   1427.78198     380.7721     348.6691
   1427.76672     381.6152     350.0289   1427.76672     381.6152     350.0289
   1427.75146     381.6808     352.8823   1427.75146     381.6808     352.8823
   1427.73621     382.5183     353.9372   1427.73621     382.5183     353.9372
   1427.72095     383.7171     356.1779   1427.72095     383.7171     356.1779
   1427.70569     384.9958     358.4752   1427.70569     384.9958     358.4752
   1427.69043     386.2091     360.1276   1427.69043     386.2091     360.1276
   1427.67517     386.3748     362.2850   1427.67517     386.3748     362.2850
   1427.65991     388.2487     364.8307   1427.65991     388.2487     364.8307
   1427.64465     389.5477     366.3736   1427.64465     389.5477     366.3736
   1427.62939     390.4352     368.3653   1427.62939     390.4352     368.3653
   1427.61414     391.4379     371.2067   1427.61414     391.4379     371.2067
   1427.59888     393.1546     373.5437   1427.59888     393.1546     373.5437
   1427.58362     394.4035     375.4868   1427.58362     394.4035     375.4868
   1427.56836     396.0920     378.6936   1427.56836     396.0920     378.6936
   1427.55310     396.9310     379.7648   1427.55310     396.9310     379.7648
   1427.53784     398.7210     382.7093   1427.53784     398.7210     382.7093
   1427.52258     400.8543     385.3417   1427.52258     400.8543     385.3417
   1427.50732     401.7982     387.9582   1427.50732     401.7982     387.9582
   1427.49207     403.4893     389.9964   1427.49207     403.4893     389.9964
   1427.47681     404.6323     392.6328   1427.47681     404.6323     392.6328
   1427.46155     407.0231     395.5024   1427.46155     407.0231     395.5024
   1427.44629     409.0916     398.7212   1427.44629     409.0916     398.7212
   1427.43103     410.7709     400.5657   1427.43103     410.7709     400.5657
   1427.41577     412.0934     403.0490   1427.41577     412.0934     403.0490
   1427.40051     415.1552     406.2794   1427.40051     415.1552     406.2794
   1427.38525     416.3764     409.5471   1427.38525     416.3764     409.5471
   1427.37000     418.3734     412.2065   1427.37000     418.3734     412.2065
   1427.35474     420.3055     414.6342   1427.35474     420.3055     414.6342
   1427.33948     423.2118     417.7431   1427.33948     423.2118     417.7431
   1427.32422     424.7612     420.5724   1427.32422     424.7612     420.5724
   1427.30896     427.1843     422.5412   1427.30896     427.1843     422.5412
   1427.29370     430.0510     426.5121   1427.29370     430.0510     426.5121
   1427.27844     431.7776     428.9952   1427.27844     431.7776     428.9952
   1427.26318     433.6665     432.3742   1427.26318     433.6665     432.3742
   1427.24792     436.6947     435.2468   1427.24792     436.6947     435.2468
   1427.23267     438.3464     438.1916   1427.23267     438.3464     438.1916
   1427.21741     440.6879     441.7295   1427.21741     440.6879     441.7295
   1427.20215     442.8637     443.9924   1427.20215     442.8637     443.9924
   1427.18689     445.9825     447.0639   1427.18689     445.9825     447.0639
   1427.17163     448.6590     450.5161   1427.17163     448.6590     450.5161
   1427.15637     451.2929     452.4780   1427.15637     451.2929     452.4780
   1427.14111     453.9333     456.0084   1427.14111     453.9333     456.0084
   1427.12585     456.2840     458.7167   1427.12585     456.2840     458.7167
   1427.11060     459.4471     461.9554   1427.11060     459.4471     461.9554
   1427.09534     462.1703     465.1488   1427.09534     462.1703     465.1488
   1427.08008     463.1342     468.1825   1427.08008     463.1342     468.1825
   1427.06482     466.9692     471.8671   1427.06482     466.9692     471.8671
   1427.04956     469.7404     474.2286   1427.04956     469.7404     474.2286
   1427.03430     472.1613     477.0865   1427.03430     472.1613     477.0865
   1427.01904     475.0343     479.6658   1427.01904     475.0343     479.6658
   1427.00378     478.2716     483.8798   1427.00378     478.2716     483.8798
   1426.98853     481.0842     485.9726   1426.98853     481.0842     485.9726
   1426.97327     483.8641     488.7270   1426.97327     483.8641     488.7270
   1426.95801     486.4591     492.5385   1426.95801     486.4591     492.5385
   1426.94275     489.9798     495.0659   1426.94275     489.9798     495.0659
   1426.92749     492.8044     497.8186   1426.92749     492.8044     497.8186
   1426.91223     495.7639     501.1803   1426.91223     495.7639     501.1803
   1426.89697     498.2570     503.6979   1426.89697     498.2570     503.6979
   1426.88171     501.3129     505.8974   1426.88171     501.3129     505.8974
   1426.86646     504.0426     509.3015   1426.86646     504.0426     509.3015
   1426.85120     506.9872     512.0437   1426.85120     506.9872     512.0437
   1426.83594     509.9984     514.9777   1426.83594     509.9984     514.9777
   1426.82068     513.8354     518.4464   1426.82068     513.8354     518.4464
   1426.80542     516.3548     520.0366   1426.80542     516.3548     520.0366
   1426.79016     519.8733     523.6423   1426.79016     519.8733     523.6423
   1426.77490     523.3383     527.7473   1426.77490     523.3383     527.7473
   1426.75964     526.0969     529.5079   1426.75964     526.0969     529.5079
   1426.74438     527.9626     531.3770   1426.74438     527.9626     531.3770
   1426.72913     531.0739     534.2515   1426.72913     531.0739     534.2515
   1426.71387     535.0502     537.1924   1426.71387     535.0502     537.1924
   1426.69861     538.1584     539.2476   1426.69861     538.1584     539.2476
   1426.68335     541.8767     542.7138   1426.68335     541.8767     542.7138
   1426.66809     544.2911     544.6464   1426.66809     544.2911     544.6464
   1426.65283     547.7609     547.6527   1426.65283     547.7609     547.6527
   1426.63757     550.7545     550.4362   1426.63757     550.7545     550.4362
   1426.62231     555.0762     555.1996   1426.62231     555.0762     555.1996
   1426.60706     556.5521     554.6957   1426.60706     556.5521     554.6957
   1426.59180     560.3113     557.6835   1426.59180     560.3113     557.6835
   1426.57654     563.1359     560.2850   1426.57654     563.1359     560.2850
   1426.56128     566.1224     561.9193   1426.56128     566.1224     561.9193
   1426.54602     569.3457     564.2959   1426.54602     569.3457     564.2959
   1426.53076     573.2030     567.0294   1426.53076     573.2030     567.0294
   1426.51550     575.6231     569.5752   1426.51550     575.6231     569.5752
   1426.50024     577.7337     571.7779   1426.50024     577.7337     571.7779
   1426.48499     580.9601     574.2413   1426.48499     580.9601     574.2413
   1426.46973     585.4621     575.9427   1426.46973     585.4621     575.9427
   1426.45447     587.9255     578.4233   1426.45447     587.9255     578.4233
   1426.43921     591.3401     580.3698   1426.43921     591.3401     580.3698
   1426.42395     593.4124     584.0165   1426.42395     593.4124     584.0165
   1426.40869     597.8336     584.4285   1426.40869     597.8336     584.4285
   1426.39343     599.8485     585.9261   1426.39343     599.8485     585.9261
   1426.37817     601.9292     587.7458   1426.37817     601.9292     587.7458
   1426.36292     606.2827     590.5614   1426.36292     606.2827     590.5614
   1426.34766     608.9114     591.4521   1426.34766     608.9114     591.4521
   1426.33240     613.2587     593.9505   1426.33240     613.2587     593.9505
   1426.31714     614.8138     596.0554   1426.31714     614.8138     596.0554
   1426.30188     617.8489     598.0406   1426.30188     617.8489     598.0406
   1426.28662     620.8688     600.4250   1426.28662     620.8688     600.4250
   1426.27136     622.6071     602.0305   1426.27136     622.6071     602.0305
   1426.25610     626.9496     604.3593   1426.25610     626.9496     604.3593
   1426.24084     629.6931     604.6400   1426.24084     629.6931     604.6400
   1426.22559     632.3502     606.3290   1426.22559     632.3502     606.3290
   1426.21033     635.5745     609.0322   1426.21033     635.5745     609.0322
   1426.19507     637.0667     609.7105   1426.19507     637.0667     609.7105
   1426.17981     640.7048     611.7662   1426.17981     640.7048     611.7662
   1426.16455     643.9247     613.1102   1426.16455     643.9247     613.1102
   1426.14929     647.1976     613.8094   1426.14929     647.1976     613.8094
   1426.13403     648.4208     616.1860   1426.13403     648.4208     616.1860
   1426.11877     651.7235     617.7470   1426.11877     651.7235     617.7470
   1426.10352     655.2781     618.9302   1426.10352     655.2781     618.9302
   1426.08826     656.2770     620.3845   1426.08826     656.2770     620.3845
   1426.07300     659.6567     622.2798   1426.07300     659.6567     622.2798
   1426.05774     662.0271     623.1508   1426.05774     662.0271     623.1508
   1426.04248     665.2812     624.1045   1426.04248     665.2812     624.1045
   1426.02722     667.4625     625.5319   1426.02722     667.4625     625.5319
   1426.01196     670.1492     627.3371   1426.01196     670.1492     627.3371
   1425.99670     671.9371     628.1458   1425.99670     671.9371     628.1458
   1425.98145     675.1753     629.2130   1425.98145     675.1753     629.2130
   1425.96619     677.3015     630.4333   1425.96619     677.3015     630.4333
   1425.95093     679.6117     631.2880   1425.95093     679.6117     631.2880
   1425.93567     682.2366     632.2174   1425.93567     682.2366     632.2174
   1425.92041     685.0145     633.8271   1425.92041     685.0145     633.8271
   1425.90515     687.3959     634.2054   1425.90515     687.3959     634.2054
   1425.88989     689.2314     634.9624   1425.88989     689.2314     634.9624
   1425.87463     690.9771     636.6674   1425.87463     690.9771     636.6674
   1425.85938     693.7915     637.3712   1425.85938     693.7915     637.3712
   1425.84412     695.5848     637.7646   1425.84412     695.5848     637.7646
   1425.82886     698.0313     639.3311   1425.82886     698.0313     639.3311
   1425.81360     700.5534     640.7301   1425.81360     700.5534     640.7301
   1425.79834     702.5128     640.5202   1425.79834     702.5128     640.5202
   1425.78308     704.6568     640.3662   1425.78308     704.6568     640.3662
   1425.76782     707.5946     641.5413   1425.76782     707.5946     641.5413
   1425.75256     708.7383     643.0367   1425.75256     708.7383     643.0367
   1425.73730     710.2780     642.4943   1425.73730     710.2780     642.4943
   1425.72205     712.6529     643.3075   1425.72205     712.6529     643.3075
   1425.70679     714.4750     645.1152   1425.70679     714.4750     645.1152
   1425.69153     715.8026     644.7556   1425.69153     715.8026     644.7556
   1425.67627     718.4307     645.3779   1425.67627     718.4307     645.3779
   1425.66101     720.3832     645.8954   1425.66101     720.3832     645.8954
   1425.64575     721.6306     646.0669   1425.64575     721.6306     646.0669
   1425.63049     724.1022     646.8828   1425.63049     724.1022     646.8828
   1425.61523     725.0414     647.4261   1425.61523     725.0414     647.4261
   1425.59998     726.8478     648.5782   1425.59998     726.8478     648.5782
   1425.58472     727.1680     648.8157   1425.58472     727.1680     648.8157
   1425.56946     730.8398     649.1459   1425.56946     730.8398     649.1459
   1425.55420     731.8244     648.5535   1425.55420     731.8244     648.5535
   1425.53894     734.3700     650.1624   1425.53894     734.3700     650.1624
   1425.52368     734.2562     649.7370   1425.52368     734.2562     649.7370
   1425.50842     737.0436     650.4745   1425.50842     737.0436     650.4745
   1425.49316     737.8959     650.3377   1425.49316     737.8959     650.3377
   1425.47791     739.2231     650.1227   1425.47791     739.2231     650.1227
   1425.46265     740.6975     651.0683   1425.46265     740.6975     651.0683
   1425.44739     741.8249     649.9000   1425.44739     741.8249     649.9000
   1425.43213     743.3677     650.5058   1425.43213     743.3677     650.5058
   1425.41687     744.1765     650.7025   1425.41687     744.1765     650.7025
   1425.40161     745.8674     651.0685   1425.40161     745.8674     651.0685
   1425.38635     746.6655     651.7880   1425.38635     746.6655     651.7880
   1425.37109     749.5278     652.2556   1425.37109     749.5278     652.2556
   1425.35583     748.9057     652.2513   1425.35583     748.9057     652.2513
   1425.34058     749.8680     651.6959   1425.34058     749.8680     651.6959
   1425.32532     751.7726     651.1144   1425.32532     751.7726     651.1144
   1425.31006     753.4415     651.9948   1425.31006     753.4415     651.9948
   1425.29480     754.6702     652.3990   1425.29480     754.6702     652.3990
   1425.27954     755.2948     651.0437   1425.27954     755.2948     651.0437
   1425.26428     757.4016     651.6108   1425.26428     757.4016     651.6108
   1425.24902     757.2996     651.3702   1425.24902     757.2996     651.3702
   1425.23376     757.0440     651.0183   1425.23376     757.0440     651.0183
   1425.21851     758.3218     652.2824   1425.21851     758.3218     652.2824
   1425.20325     760.0558     651.3687   1425.20325     760.0558     651.3687
   1425.18799     760.4418     650.8031   1425.18799     760.4418     650.8031
   1425.17273     760.1147     651.1203   1425.17273     760.1147     651.1203
   1425.15747     760.7266     650.9366   1425.15747     760.7266     650.9366
   1425.14221     762.8123     651.1628   1425.14221     762.8123     651.1628
   1425.12695     764.0245     651.0623   1425.12695     764.0245     651.0623
   1425.11169     763.6177     650.4005   1425.11169     763.6177     650.4005
   1425.09644     764.6364     651.1550   1425.09644     764.6364     651.1550
   1425.08118     765.7817     649.9888   1425.08118     765.7817     649.9888
   1425.06592     765.7372     649.4506   1425.06592     765.7372     649.4506
   1425.05066     766.2477     649.9771   1425.05066     766.2477     649.9771
   1425.03540     768.3060     648.8042   1425.03540     768.3060     648.8042
   1425.02014     768.8970     648.5638   1425.02014     768.8970     648.5638
   1425.00488     769.3813     648.4746   1425.00488     769.3813     648.4746
   1424.98962     768.6433     648.2246   1424.98962     768.6433     648.2246
   1424.97437     768.8596     648.2466   1424.97437     768.8596     648.2466
   1424.95911     769.4564     647.7224   1424.95911     769.4564     647.7224
   1424.94385     769.9001     646.6536   1424.94385     769.9001     646.6536
   1424.92859     772.1778     646.8886   1424.92859     772.1778     646.8886
   1424.91333     771.8043     645.6813   1424.91333     771.8043     645.6813
   1424.89807     771.6233     646.0059   1424.89807     771.6233     646.0059
   1424.88281     770.4291     646.8292   1424.88281     770.4291     646.8292
   1424.86755     772.3860     645.2227   1424.86755     772.3860     645.2227
   1424.85229     772.0123     644.3713   1424.85229     772.0123     644.3713
   1424.83704     772.6168     643.9185   1424.83704     772.6168     643.9185
   1424.82178     773.4998     643.7458   1424.82178     773.4998     643.7458
   1424.80652     773.7573     644.0051   1424.80652     773.7573     644.0051
   1424.79126     772.4837     644.0328   1424.79126     772.4837     644.0328
   1424.77600     773.7827     642.2144   1424.77600     773.7827     642.2144
   1424.76074     772.6042     641.6292   1424.76074     772.6042     641.6292
   1424.74548     773.0148     641.5413   1424.74548     773.0148     641.5413
   1424.73022     773.8030     641.3705   1424.73022     773.8030     641.3705
   1424.71497     774.0033     640.8428   1424.71497     774.0033     640.8428
   1424.69971     772.4089     639.5903   1424.69971     772.4089     639.5903
   1424.68445     772.6696     639.0530   1424.68445     772.6696     639.0530
   1424.66919     773.2179     638.8488   1424.66919     773.2179     638.8488
   1424.65393     772.9208     638.9500   1424.65393     772.9208     638.9500
   1424.63867     774.1957     637.7892   1424.63867     774.1957     637.7892
   1424.62341     772.9801     637.7684   1424.62341     772.9801     637.7684
   1424.60815     773.1415     637.0723   1424.60815     773.1415     637.0723
   1424.59290     772.2509     635.7902   1424.59290     772.2509     635.7902
   1424.57764     772.0433     635.7344   1424.57764     772.0433     635.7344
   1424.56238     772.1928     635.6442   1424.56238     772.1928     635.6442
   1424.54712     773.8047     634.0710   1424.54712     773.8047     634.0710
   1424.53186     772.8812     633.5186   1424.53186     772.8812     633.5186
   1424.51660     773.6595     633.0656   1424.51660     773.6595     633.0656
   1424.50134     772.9981     632.8712   1424.50134     772.9981     632.8712
   1424.48608     771.9044     632.0472   1424.48608     771.9044     632.0472
   1424.47083     771.5331     631.4355   1424.47083     771.5331     631.4355
   1424.45557     772.0220     630.2906   1424.45557     772.0220     630.2906
   1424.44031     772.4952     630.6632   1424.44031     772.4952     630.6632
   1424.42505     771.5827     630.1555   1424.42505     771.5827     630.1555
   1424.40979     770.9857     629.8806   1424.40979     770.9857     629.8806
   1424.39453     770.1552     626.6896   1424.39453     770.1552     626.6896
   1424.37927     770.6124     628.5922   1424.37927     770.6124     628.5922
   1424.36401     770.7664     627.3091   1424.36401     770.7664     627.3091
   1424.34875     769.8724     626.8473   1424.34875     769.8724     626.8473
   1424.33350     770.7120     626.3145   1424.33350     770.7120     626.3145
   1424.31824     768.5247     624.9056   1424.31824     768.5247     624.9056
   1424.30298     768.7247     624.1454   1424.30298     768.7247     624.1454
   1424.28772     768.8216     624.2559   1424.28772     768.8216     624.2559
   1424.27246     767.6312     624.2162   1424.27246     767.6312     624.2162
   1424.25720     769.3505     622.0355   1424.25720     769.3505     622.0355
   1424.24194     768.3575     621.4251   1424.24194     768.3575     621.4251
   1424.22668     768.5103     621.7932   1424.22668     768.5103     621.7932
   1424.21143     766.9512     620.2271   1424.21143     766.9512     620.2271
   1424.19617     766.1518     620.7311   1424.19617     766.1518     620.7311
   1424.18091     766.9870     618.7875   1424.18091     766.9870     618.7875
   1424.16565     765.6826     618.4085   1424.16565     765.6826     618.4085
   1424.15039     764.7434     618.6454   1424.15039     764.7434     618.6454
   1424.13513     765.9616     617.6021   1424.13513     765.9616     617.6021
   1424.11987     764.5263     615.7797   1424.11987     764.5263     615.7797
   1424.10461     763.8750     615.8902   1424.10461     763.8750     615.8902
   1424.08936     764.6614     615.1281   1424.08936     764.6614     615.1281
   1424.07410     763.5855     614.4963   1424.07410     763.5855     614.4963
   1424.05884     763.4038     614.2034   1424.05884     763.4038     614.2034
   1424.04358     762.1078     613.6252   1424.04358     762.1078     613.6252
   1424.02832     762.2354     613.5556   1424.02832     762.2354     613.5556
   1424.01306     762.6260     611.6212   1424.01306     762.6260     611.6212
   1423.99780     760.8981     610.8248   1423.99780     760.8981     610.8248
   1423.98254     761.8528     609.5745   1423.98254     761.8528     609.5745
   1423.96729     760.7639     609.1896   1423.96729     760.7639     609.1896
   1423.95203     761.5436     609.6604   1423.95203     761.5436     609.6604
   1423.93677     760.4244     609.3330   1423.93677     760.4244     609.3330
   1423.92151     760.0288     607.5001   1423.92151     760.0288     607.5001
   1423.90625     759.2551     607.1428   1423.90625     759.2551     607.1428
   1423.89099     758.0728     606.0653   1423.89099     758.0728     606.0653
   1423.87573     758.1517     604.7878   1423.87573     758.1517     604.7878
   1423.86047     757.5279     605.0591   1423.86047     757.5279     605.0591
   1423.84521     756.8631     603.6241   1423.84521     756.8631     603.6241
   1423.82996     756.3320     604.0430   1423.82996     756.3320     604.0430
   1423.81470     755.5148     603.1950   1423.81470     755.5148     603.1950
   1423.79944     756.0611     601.4324   1423.79944     756.0611     601.4324
   1423.78418     755.2554     601.8671   1423.78418     755.2554     601.8671
   1423.76892     755.3868     600.1751   1423.76892     755.3868     600.1751
   1423.75366     754.7172     600.6062   1423.75366     754.7172     600.6062
   1423.73840     753.5725     599.6987   1423.73840     753.5725     599.6987
   1423.72314     753.9492     598.8508   1423.72314     753.9492     598.8508
   1423.70789     752.1251     597.6887   1423.70789     752.1251     597.6887
   1423.69263     752.3002     597.4687   1423.69263     752.3002     597.4687
   1423.67737     751.4490     595.7903   1423.67737     751.4490     595.7903
   1423.66211     751.4095     596.3654   1423.66211     751.4095     596.3654
   1423.64685     750.9731     593.4117   1423.64685     750.9731     593.4117
   1423.63159     750.4566     595.1254   1423.63159     750.4566     595.1254
   1423.61633     749.7128     593.9915   1423.61633     749.7128     593.9915
   1423.60107     749.0602     592.5427   1423.60107     749.0602     592.5427
   1423.58582     749.2288     592.2797   1423.58582     749.2288     592.2797
   1423.57056     748.2757     592.3519   1423.57056     748.2757     592.3519
   1423.55530     748.6499     591.3224   1423.55530     748.6499     591.3224
   1423.54004     748.4605     590.2181   1423.54004     748.4605     590.2181
   1423.52478     747.0985     589.8564   1423.52478     747.0985     589.8564
   1423.50952     747.4221     588.7468   1423.50952     747.4221     588.7468
   1423.49426     745.5414     588.2097   1423.49426     745.5414     588.2097
   1423.47900     747.4709     587.5767   1423.47900     747.4709     587.5767
   1423.46375     745.0869     586.0565   1423.46375     745.0869     586.0565
   1423.44849     746.3072     586.4974   1423.44849     746.3072     586.4974
   1423.43323     743.8285     585.4412   1423.43323     743.8285     585.4412
   1423.41797     744.5657     584.9382   1423.41797     744.5657     584.9382
   1423.40271     744.0703     583.5877   1423.40271     744.0703     583.5877
   1423.38745     744.2991     583.2443   1423.38745     744.2991     583.2443
   1423.37219     743.7457     582.5232   1423.37219     743.7457     582.5232
   1423.35693     743.0265     582.0136   1423.35693     743.0265     582.0136
   1423.34167     743.3047     581.7745   1423.34167     743.3047     581.7745
   1423.32642     743.3290     579.8228   1423.32642     743.3290     579.8228
   1423.31116     742.1546     578.7898   1423.31116     742.1546     578.7898
   1423.29590     741.1431     578.3814   1423.29590     741.1431     578.3814
   1423.28064     739.6442     578.7926   1423.28064     739.6442     578.7926
   1423.26538     739.7656     577.0991   1423.26538     739.7656     577.0991
   1423.25012     740.7252     576.5653   1423.25012     740.7252     576.5653
   1423.23486     738.8970     575.9429   1423.23486     738.8970     575.9429
   1423.21960     739.7515     575.7352   1423.21960     739.7515     575.7352
   1423.20435     738.5455     574.0298   1423.20435     738.5455     574.0298
   1423.18909     738.8312     573.9796   1423.18909     738.8312     573.9796
   1423.17383     738.3508     573.1470   1423.17383     738.3508     573.1470
   1423.15857     737.5331     572.2936   1423.15857     737.5331     572.2936
   1423.14331     738.2406     571.0952   1423.14331     738.2406     571.0952
   1423.12805     736.6727     569.7726   1423.12805     736.6727     569.7726
   1423.11279     736.6054     570.2927   1423.11279     736.6054     570.2927
   1423.09753     736.8646     569.1180   1423.09753     736.8646     569.1180
   1423.08228     735.9457     568.6246   1423.08228     735.9457     568.6246
   1423.06702     735.0114     567.9205   1423.06702     735.0114     567.9205
   1423.05176     735.5368     568.1503   1423.05176     735.5368     568.1503
   1423.03650     735.1597     566.3271   1423.03650     735.1597     566.3271
   1423.02124     735.7027     566.2592   1423.02124     735.7027     566.2592
   1423.00598     735.1061     565.5712   1423.00598     735.1061     565.5712
   1422.99072     734.5810     563.7531   1422.99072     734.5810     563.7531
   1422.97546     733.7122     563.7570   1422.97546     733.7122     563.7570
   1422.96021     733.0866     562.4489   1422.96021     733.0866     562.4489
   1422.94495     734.4597     562.7500   1422.94495     734.4597     562.7500
   1422.92969     733.0734     561.0217   1422.92969     733.0734     561.0217
   1422.91443     732.2346     560.6370   1422.91443     732.2346     560.6370
   1422.89917     732.8225     558.9124   1422.89917     732.8225     558.9124
   1422.88391     731.6922     558.7819   1422.88391     731.6922     558.7819
   1422.86865     732.2528     558.6215   1422.86865     732.2528     558.6215
   1422.85339     731.0811     557.6664   1422.85339     731.0811     557.6664
   1422.83813     730.8154     556.6981   1422.83813     730.8154     556.6981
   1422.82288     730.8955     556.0551   1422.82288     730.8955     556.0551
   1422.80762     731.8843     555.3749   1422.80762     731.8843     555.3749
   1422.79236     729.4689     553.6950   1422.79236     729.4689     553.6950
   1422.77710     730.1191     554.3226   1422.77710     730.1191     554.3226
   1422.76184     729.5842     552.7092   1422.76184     729.5842     552.7092
   1422.74658     729.8391     551.6483   1422.74658     729.8391     551.6483
   1422.73132     729.1995     551.0607   1422.73132     729.1995     551.0607
   1422.71606     729.8046     550.9065   1422.71606     729.8046     550.9065
   1422.70081     728.9919     549.5831   1422.70081     728.9919     549.5831
   1422.68555     728.9939     548.4597   1422.68555     728.9939     548.4597
   1422.67029     728.7217     548.3811   1422.67029     728.7217     548.3811
   1422.65503     728.3458     548.0110   1422.65503     728.3458     548.0110
   1422.63977     728.1027     547.1622   1422.63977     728.1027     547.1622
   1422.62451     728.4175     546.1887   1422.62451     728.4175     546.1887
   1422.60925     727.3807     545.4811   1422.60925     727.3807     545.4811
   1422.59399     726.6780     544.9259   1422.59399     726.6780     544.9259
   1422.57874     727.0603     543.9405   1422.57874     727.0603     543.9405
   1422.56348     728.2642     543.6264   1422.56348     728.2642     543.6264
   1422.54822     726.9286     541.5017   1422.54822     726.9286     541.5017
   1422.53296     727.0714     541.7122   1422.53296     727.0714     541.7122
   1422.51770     727.0967     540.7601   1422.51770     727.0967     540.7601
   1422.50244     726.7207     540.0914   1422.50244     726.7207     540.0914
   1422.48718     726.1191     538.9718   1422.48718     726.1191     538.9718
   1422.47192     725.7843     539.2213   1422.47192     725.7843     539.2213
   1422.45667     725.8223     538.2355   1422.45667     725.8223     538.2355
   1422.44141     725.3501     537.0308   1422.44141     725.3501     537.0308
   1422.42615     725.7968     535.8745   1422.42615     725.7968     535.8745
   1422.41089     725.2049     535.2534   1422.41089     725.2049     535.2534
   1422.39563     724.6400     534.3417   1422.39563     724.6400     534.3417
   1422.38037     725.7614     533.1282   1422.38037     725.7614     533.1282
   1422.36511     725.5172     532.4821   1422.36511     725.5172     532.4821
   1422.34985     725.8175     531.8136   1422.34985     725.8175     531.8136
   1422.33459     724.4222     531.2809   1422.33459     724.4222     531.2809
   1422.31934     724.6362     530.9210   1422.31934     724.6362     530.9210
   1422.30408     724.9412     528.7439   1422.30408     724.9412     528.7439
   1422.28882     726.0253     529.6028   1422.28882     726.0253     529.6028
   1422.27356     723.9362     528.8112   1422.27356     723.9362     528.8112
   1422.25830     725.5195     526.9687   1422.25830     725.5195     526.9687
   1422.24304     724.4450     527.0193   1422.24304     724.4450     527.0193
   1422.22778     724.2929     525.4830   1422.22778     724.2929     525.4830
   1422.21252     723.8257     524.9063   1422.21252     723.8257     524.9063
   1422.19727     723.8092     524.1161   1422.19727     723.8092     524.1161
   1422.18201     723.5192     522.5245   1422.18201     723.5192     522.5245
   1422.16675     722.3849     522.4227   1422.16675     722.3849     522.4227
   1422.15149     723.4349     521.7157   1422.15149     723.4349     521.7157
   1422.13623     723.9467     520.7128   1422.13623     723.9467     520.7128
   1422.12097     723.7258     519.7893   1422.12097     723.7258     519.7893
   1422.10571     722.4088     519.8640   1422.10571     722.4088     519.8640
   1422.09045     723.3312     518.9691   1422.09045     723.3312     518.9691
   1422.07520     721.1275     517.0718   1422.07520     721.1275     517.0718
   1422.05994     723.0396     516.8024   1422.05994     723.0396     516.8024
   1422.04468     722.3546     515.4914   1422.04468     722.3546     515.4914
   1422.02942     722.4452     514.7203   1422.02942     722.4452     514.7203
   1422.01416     721.9843     514.2087   1422.01416     721.9843     514.2087
   1421.99890     723.3211     513.2780   1421.99890     723.3211     513.2780
   1421.98364     721.7040     512.4290   1421.98364     721.7040     512.4290
   1421.96838     721.8342     512.0132   1421.96838     721.8342     512.0132
   1421.95312     721.9045     511.4945   1421.95312     721.9045     511.4945
   1421.93787     721.8874     510.9487   1421.93787     721.8874     510.9487
   1421.92261     721.7778     509.5303   1421.92261     721.7778     509.5303
   1421.90735     722.4390     508.2289   1421.90735     722.4390     508.2289
   1421.89209     720.0157     508.1105   1421.89209     720.0157     508.1105
   1421.87683     721.7472     507.5040   1421.87683     721.7472     507.5040
   1421.86157     721.1453     506.1756   1421.86157     721.1453     506.1756
   1421.84631     721.0355     505.2148   1421.84631     721.0355     505.2148
   1421.83105     721.1012     504.4086   1421.83105     721.1012     504.4086
   1421.81580     722.1546     503.2681   1421.81580     722.1546     503.2681
   1421.80054     720.6624     502.4204   1421.80054     720.6624     502.4204
   1421.78528     720.2708     501.7729   1421.78528     720.2708     501.7729
   1421.77002     720.3793     500.2960   1421.77002     720.3793     500.2960
   1421.75476     720.1666     500.3275   1421.75476     720.1666     500.3275
   1421.73950     719.0040     498.8825   1421.73950     719.0040     498.8825
   1421.72424     720.0815     498.9355   1421.72424     720.0815     498.9355
   1421.70898     719.4759     497.3743   1421.70898     719.4759     497.3743
   1421.69373     719.3217     497.1795   1421.69373     719.3217     497.1795
   1421.67847     719.6384     496.6635   1421.67847     719.6384     496.6635
   1421.66321     720.6607     495.7260   1421.66321     720.6607     495.7260
   1421.64795     720.4874     494.9307   1421.64795     720.4874     494.9307
   1421.63269     718.9257     493.3120   1421.63269     718.9257     493.3120
   1421.61743     719.6253     492.6177   1421.61743     719.6253     492.6177
   1421.60217     719.0078     491.1474   1421.60217     719.0078     491.1474
   1421.58691     718.4260     491.0674   1421.58691     718.4260     491.0674
   1421.57166     718.4282     490.1424   1421.57166     718.4282     490.1424
   1421.55640     718.2864     490.0291   1421.55640     718.2864     490.0291
   1421.54114     718.1864     488.2087   1421.54114     718.1864     488.2087
   1421.52588     718.3199     487.7007   1421.52588     718.3199     487.7007
   1421.51062     718.0846     486.6810   1421.51062     718.0846     486.6810
   1421.49536     718.0052     486.2404   1421.49536     718.0052     486.2404
   1421.48010     717.4584     484.3794   1421.48010     717.4584     484.3794
   1421.46484     717.9537     483.5662   1421.46484     717.9537     483.5662
   1421.44958     716.9092     483.0577   1421.44958     716.9092     483.0577
   1421.43433     717.2811     481.9921   1421.43433     717.2811     481.9921
   1421.41907     718.0391     481.1493   1421.41907     718.0391     481.1493
   1421.40381     717.1805     480.7676   1421.40381     717.1805     480.7676
   1421.38855     716.9024     479.5247   1421.38855     716.9024     479.5247
   1421.37329     715.8455     478.9650   1421.37329     715.8455     478.9650
   1421.35803     716.6325     477.8997   1421.35803     716.6325     477.8997
   1421.34277     716.9943     477.2898   1421.34277     716.9943     477.2898
   1421.32751     716.6630     476.6877   1421.32751     716.6630     476.6877
   1421.31226     715.3495     475.3669   1421.31226     715.3495     475.3669
   1421.29700     715.6506     474.7993   1421.29700     715.6506     474.7993
   1421.28174     714.8334     473.4913   1421.28174     714.8334     473.4913
   1421.26648     715.6627     473.1032   1421.26648     715.6627     473.1032
   1421.25122     714.3089     472.0481   1421.25122     714.3089     472.0481
   1421.23596     715.0648     471.4365   1421.23596     715.0648     471.4365
   1421.22070     713.6135     470.5486   1421.22070     713.6135     470.5486
   1421.20544     715.6553     468.8629   1421.20544     715.6553     468.8629
   1421.19019     713.4242     468.5659   1421.19019     713.4242     468.5659
   1421.17493     713.9781     468.2665   1421.17493     713.9781     468.2665
   1421.15967     713.2259     466.1530   1421.15967     713.2259     466.1530
   1421.14441     714.4990     465.5630   1421.14441     714.4990     465.5630
   1421.12915     713.2486     465.2045   1421.12915     713.2486     465.2045
   1421.11389     713.6140     464.1396   1421.11389     713.6140     464.1396
   1421.09863     712.9079     463.2502   1421.09863     712.9079     463.2502
   1421.08337     712.9163     463.1155   1421.08337     712.9163     463.1155
   1421.06812     712.0767     461.2849   1421.06812     712.0767     461.2849
   1421.05286     713.7328     460.8609   1421.05286     713.7328     460.8609
   1421.03760     712.7064     459.1797   1421.03760     712.7064     459.1797
   1421.02234     712.3829     458.7227   1421.02234     712.3829     458.7227
   1421.00708     711.2155     458.3794   1421.00708     711.2155     458.3794
   1420.99182     712.6413     457.6018   1420.99182     712.6413     457.6018
   1420.97656     712.5139     456.4814   1420.97656     712.5139     456.4814
   1420.96130     711.1517     456.0220   1420.96130     711.1517     456.0220
   1420.94604     712.3457     455.4951   1420.94604     712.3457     455.4951
   1420.93079     712.3052     454.2869   1420.93079     712.3052     454.2869
   1420.91553     710.9277     453.9274   1420.91553     710.9277     453.9274
   1420.90027     711.8821     452.7906   1420.90027     711.8821     452.7906
   1420.88501     712.4239     451.9809   1420.88501     712.4239     451.9809
   1420.86975     711.3560     451.4166   1420.86975     711.3560     451.4166
   1420.85449     710.7603     451.0032   1420.85449     710.7603     451.0032
   1420.83923     709.7966     450.4960   1420.83923     709.7966     450.4960
   1420.82397     711.5938     449.4295   1420.82397     711.5938     449.4295
   1420.80872     709.6990     448.5907   1420.80872     709.6990     448.5907
   1420.79346     710.8564     447.7688   1420.79346     710.8564     447.7688
   1420.77820     711.3383     446.0649   1420.77820     711.3383     446.0649
   1420.76294     710.5982     446.2953   1420.76294     710.5982     446.2953
   1420.74768     710.6910     445.6602   1420.74768     710.6910     445.6602
   1420.73242     710.5095     445.1860   1420.73242     710.5095     445.1860
   1420.71716     712.1532     444.4542   1420.71716     712.1532     444.4542
   1420.70190     710.5500     444.1815   1420.70190     710.5500     444.1815
   1420.68665     711.8195     443.8507   1420.68665     711.8195     443.8507
   1420.67139     712.7905     444.0874   1420.67139     712.7905     444.0874
   1420.65613     712.5494     442.6606   1420.65613     712.5494     442.6606
   1420.64087     713.0339     441.8506   1420.64087     713.0339     441.8506
   1420.62561     713.2123     442.2448   1420.62561     713.2123     442.2448
   1420.61035     715.8176     441.9395   1420.61035     715.8176     441.9395
   1420.59509     716.8508     442.2427   1420.59509     716.8508     442.2427
   1420.57983     719.6954     442.5882   1420.57983     719.6954     442.5882
   1420.56458     721.7438     444.1335   1420.56458     721.7438     444.1335
   1420.54932     727.2531     446.0145   1420.54932     727.2531     446.0145
   1420.53406     731.8647     448.8533   1420.53406     731.8647     448.8533
   1420.51880     737.3861     452.2552   1420.51880     737.3861     452.2552
   1420.50354     746.6684     456.0741   1420.50354     746.6684     456.0741
   1420.48828     762.9139     464.3095   1420.48828     762.9139     464.3095
   1420.47302     780.9951     475.5756   1420.47302     780.9951     475.5756
   1420.45776     812.4188     492.1983   1420.45776     812.4188     492.1983
   1420.44250     855.3958     517.6567   1420.44250     855.3958     517.6567
   1420.42725     938.6320     565.3029   1420.42725     938.6320     565.3029
   1420.41199    1148.0238     688.2237   1420.41199    1148.0238     688.2237
   1420.39673    1649.7245     981.0740   1420.39673    1649.7245     981.0740
   1420.38147    1989.2820    1182.1459   1420.38147    1989.2820    1182.1459
   1420.36621    2083.2178    1232.8539   1420.36621    2083.2178    1232.8539
   1420.35095    2156.0959    1276.7791   1420.35095    2156.0959    1276.7791
   1420.33569    2404.3655    1420.4514   1420.33569    2404.3655    1420.4514
   1420.32043    2656.6763    1562.8901   1420.32043    2656.6763    1562.8901
   1420.30518    2637.1338    1549.9843   1420.30518    2637.1338    1549.9843
   1420.28992    2423.8430    1422.9553   1420.28992    2423.8430    1422.9553
   1420.27466    2149.6792    1264.0461   1420.27466    2149.6792    1264.0461
   1420.25940    1612.1583     949.2566   1420.25940    1612.1583     949.2566
   1420.24414    1028.0916     609.9752   1420.24414    1028.0916     609.9752
   1420.22888     844.4752     501.3503   1420.22888     844.4752     501.3503
   1420.21362     775.4597     460.3729   1420.21362     775.4597     460.3729
   1420.19836     742.3646     441.8492   1420.19836     742.3646     441.8492
   1420.18311     726.6511     431.7697   1420.18311     726.6511     431.7697
   1420.16785     718.9382     426.6062   1420.16785     718.9382     426.6062
   1420.15259     714.2560     422.7529   1420.15259     714.2560     422.7529
   1420.13733     710.8480     420.0936   1420.13733     710.8480     420.0936
   1420.12207     708.9397     418.2099   1420.12207     708.9397     418.2099
   1420.10681     707.0999     416.7978   1420.10681     707.0999     416.7978
   1420.09155     704.6328     414.6708   1420.09155     704.6328     414.6708
   1420.07629     703.4937     413.3799   1420.07629     703.4937     413.3799
   1420.06104     702.8530     412.5226   1420.06104     702.8530     412.5226
   1420.04578     700.6479     411.2196   1420.04578     700.6479     411.2196
   1420.03052     699.5345     410.4417   1420.03052     699.5345     410.4417
   1420.01526     700.3940     411.0190   1420.01526     700.3940     411.0190
   1420.00000     701.2762     410.9388   1420.00000     701.2762     410.9388
   1419.98474     702.1586     410.8585   1419.98474     702.1586     410.8585
   1419.96948     702.0042     408.3232   1419.96948     702.0042     408.3232
   1419.95422     699.5162     407.4418   1419.95422     699.5162     407.4418
   1419.93896     696.5868     406.5173   1419.93896     696.5868     406.5173
   1419.92371     698.5088     406.3948   1419.92371     698.5088     406.3948
   1419.90845     697.2953     405.4447   1419.90845     697.2953     405.4447
   1419.89319     696.9429     404.4049   1419.89319     696.9429     404.4049
   1419.87793     697.5770     404.5494   1419.87793     697.5770     404.5494
   1419.86267     698.1826     402.8197   1419.86267     698.1826     402.8197
   1419.84741     697.1686     402.2959   1419.84741     697.1686     402.2959
   1419.83215     696.8364     402.5699   1419.83215     696.8364     402.5699
   1419.81689     697.1272     401.5297   1419.81689     697.1272     401.5297
   1419.80164     697.4679     400.2137   1419.80164     697.4679     400.2137
   1419.78638     697.1786     400.2204   1419.78638     697.1786     400.2204
   1419.77112     698.1216     400.2526   1419.77112     698.1216     400.2526
   1419.75586     696.0784     399.6211   1419.75586     696.0784     399.6211
   1419.74060     696.3417     399.0986   1419.74060     696.3417     399.0986
   1419.72534     696.9388     398.5793   1419.72534     696.9388     398.5793
   1419.71008     695.9547     397.9782   1419.71008     695.9547     397.9782
   1419.69482     697.0106     397.7617   1419.69482     697.0106     397.7617
   1419.67957     696.5774     397.4704   1419.67957     696.5774     397.4704
   1419.66431     696.2816     396.2996   1419.66431     696.2816     396.2996
   1419.64905     697.6819     396.4491   1419.64905     697.6819     396.4491
   1419.63379     696.6912     396.1400   1419.63379     696.6912     396.1400
   1419.61853     696.5790     395.6977   1419.61853     696.5790     395.6977
   1419.60327     697.2213     395.1348   1419.60327     697.2213     395.1348
   1419.58801     698.3549     395.3828   1419.58801     698.3549     395.3828
   1419.57275     697.7481     395.0558   1419.57275     697.7481     395.0558
   1419.55750     698.9191     394.6415   1419.55750     698.9191     394.6415
   1419.54224     698.1623     394.1332   1419.54224     698.1623     394.1332
   1419.52698     698.4214     393.5170   1419.52698     698.4214     393.5170
   1419.51172     698.3655     393.5794   1419.51172     698.3655     393.5794
   1419.49646     698.0010     393.3941   1419.49646     698.0010     393.3941
   1419.48120     698.8329     392.7744   1419.48120     698.8329     392.7744
   1419.46594     698.2212     392.5203   1419.46594     698.2212     392.5203
   1419.45068     698.4649     391.7504   1419.45068     698.4649     391.7504
   1419.43542     699.9146     392.4016   1419.43542     699.9146     392.4016
   1419.42017     699.4932     392.1472   1419.42017     699.4932     392.1472
   1419.40491     700.6086     392.3321   1419.40491     700.6086     392.3321
   1419.38965     700.3387     391.6210   1419.38965     700.3387     391.6210
   1419.37439     702.0118     391.5344   1419.37439     702.0118     391.5344
   1419.35913     700.5388     390.9471   1419.35913     700.5388     390.9471
   1419.34387     700.6707     391.3970   1419.34387     700.6707     391.3970
   1419.32861     700.3223     390.7957   1419.32861     700.3223     390.7957
   1419.31335     701.2665     390.9174   1419.31335     701.2665     390.9174
   1419.29810     700.6804     390.2430   1419.29810     700.6804     390.2430
   1419.28284     701.9482     391.0617   1419.28284     701.9482     391.0617
   1419.26758     703.1317     390.4498   1419.26758     703.1317     390.4498
   1419.25232     701.9169     390.8305   1419.25232     701.9169     390.8305
   1419.23706     701.7682     390.0310   1419.23706     701.7682     390.0310
   1419.22180     702.8844     390.8792   1419.22180     702.8844     390.8792
   1419.20654     703.2651     389.6638   1419.20654     703.2651     389.6638
   1419.19128     703.3342     389.2287   1419.19128     703.3342     389.2287
   1419.17603     703.2887     390.1218   1419.17603     703.2887     390.1218
   1419.16077     704.5063     389.2549   1419.16077     704.5063     389.2549
   1419.14551     704.6778     390.1710   1419.14551     704.6778     390.1710
   1419.13025     704.7272     389.6655   1419.13025     704.7272     389.6655
   1419.11499     706.0851     389.2904   1419.11499     706.0851     389.2904
   1419.09973     704.8697     389.1770   1419.09973     704.8697     389.1770
   1419.08447     706.8806     389.4818   1419.08447     706.8806     389.4818
   1419.06921     706.1666     389.4405   1419.06921     706.1666     389.4405
   1419.05396     706.7317     389.3105   1419.05396     706.7317     389.3105
   1419.03870     706.0685     389.5522   1419.03870     706.0685     389.5522
   1419.02344     708.3214     390.2754   1419.02344     708.3214     390.2754
   1419.00818     707.7263     389.6340   1419.00818     707.7263     389.6340
   1418.99292     708.3432     389.2792   1418.99292     708.3432     389.2792
   1418.97766     707.5782     389.9392   1418.97766     707.5782     389.9392
   1418.96240     710.7318     390.1786   1418.96240     710.7318     390.1786
   1418.94714     710.9937     390.8630   1418.94714     710.9937     390.8630
   1418.93188     710.2627     389.9597   1418.93188     710.2627     389.9597
   1418.91663     710.1843     390.5341   1418.91663     710.1843     390.5341
   1418.90137     712.1372     390.5349   1418.90137     712.1372     390.5349
   1418.88611     711.6887     390.7049   1418.88611     711.6887     390.7049
   1418.87085     711.6096     390.3786   1418.87085     711.6096     390.3786
   1418.85559     713.0369     390.7629   1418.85559     713.0369     390.7629
   1418.84033     712.3235     390.7456   1418.84033     712.3235     390.7456
   1418.82507     713.6978     391.6327   1418.82507     713.6978     391.6327
   1418.80981     714.4430     391.3532   1418.80981     714.4430     391.3532
   1418.79456     714.2454     391.2213   1418.79456     714.2454     391.2213
   1418.77930     713.8320     391.6418   1418.77930     713.8320     391.6418
   1418.76404     715.8090     392.3480   1418.76404     715.8090     392.3480
   1418.74878     716.7286     392.1420   1418.74878     716.7286     392.1420
   1418.73352     717.2080     392.4788   1418.73352     717.2080     392.4788
   1418.71826     716.2964     392.0282   1418.71826     716.2964     392.0282
   1418.70300     718.3821     392.9417   1418.70300     718.3821     392.9417
   1418.68774     718.6448     392.8128   1418.68774     718.6448     392.8128
   1418.67249     719.1653     394.0069   1418.67249     719.1653     394.0069
   1418.65723     718.5488     393.9276   1418.65723     718.5488     393.9276
   1418.64197     720.2828     394.5290   1418.64197     720.2828     394.5290
   1418.62671     720.5722     394.4128   1418.62671     720.5722     394.4128
   1418.61145     720.4042     394.6285   1418.61145     720.4042     394.6285
   1418.59619     721.1990     395.2028   1418.59619     721.1990     395.2028
   1418.58093     722.7855     394.8323   1418.58093     722.7855     394.8323
   1418.56567     723.7411     395.2304   1418.56567     723.7411     395.2304
   1418.55042     723.8446     395.9470   1418.55042     723.8446     395.9470
   1418.53516     724.2567     396.4067   1418.53516     724.2567     396.4067
   1418.51990     725.0137     397.4114   1418.51990     725.0137     397.4114
   1418.50464     726.0094     397.7623   1418.50464     726.0094     397.7623
   1418.48938     726.5374     397.2737   1418.48938     726.5374     397.2737
   1418.47412     726.8393     398.1122   1418.47412     726.8393     398.1122
   1418.45886     725.8773     398.8408   1418.45886     725.8773     398.8408
   1418.44360     727.9251     399.2608   1418.44360     727.9251     399.2608
   1418.42834     729.0707     399.9610   1418.42834     729.0707     399.9610
   1418.41309     729.3596     399.9763   1418.41309     729.3596     399.9763
   1418.39783     729.6373     400.7987   1418.39783     729.6373     400.7987
   1418.38257     729.8109     401.2260   1418.38257     729.8109     401.2260
   1418.36731     731.6949     400.6133   1418.36731     731.6949     400.6133
   1418.35205     731.0447     402.5365   1418.35205     731.0447     402.5365
   1418.33679     732.7426     402.5386   1418.33679     732.7426     402.5386
   1418.32153     732.7722     402.1139   1418.32153     732.7722     402.1139
   1418.30627     733.6279     403.3352   1418.30627     733.6279     403.3352
   1418.29102     733.6402     404.4359   1418.29102     733.6402     404.4359
   1418.27576     735.4511     404.9844   1418.27576     735.4511     404.9844
   1418.26050     736.5269     405.4965   1418.26050     736.5269     405.4965
   1418.24524     737.1041     406.2126   1418.24524     737.1041     406.2126
   1418.22998     736.7780     406.3668   1418.22998     736.7780     406.3668
   1418.21472     739.1617     406.9116   1418.21472     739.1617     406.9116
   1418.19946     738.2116     407.9503   1418.19946     738.2116     407.9503
   1418.18420     739.8421     408.0502   1418.18420     739.8421     408.0502
   1418.16895     740.5646     409.0805   1418.16895     740.5646     409.0805
   1418.15369     741.7571     409.1388   1418.15369     741.7571     409.1388
   1418.13843     741.2610     409.7577   1418.13843     741.2610     409.7577
   1418.12317     743.3389     410.6150   1418.12317     743.3389     410.6150
   1418.10791     743.0393     411.0471   1418.10791     743.0393     411.0471
   1418.09265     744.9556     411.6456   1418.09265     744.9556     411.6456
   1418.07739     744.9894     413.5581   1418.07739     744.9894     413.5581
   1418.06213     745.6429     413.8271   1418.06213     745.6429     413.8271
   1418.04688     747.4068     413.7155   1418.04688     747.4068     413.7155
   1418.03162     747.0405     414.7511   1418.03162     747.0405     414.7511
   1418.01636     748.2198     415.8603   1418.01636     748.2198     415.8603
   1418.00110     749.4436     416.6534   1418.00110     749.4436     416.6534
   1417.98584     749.1555     416.8050   1417.98584     749.1555     416.8050
   1417.97058     751.1851     418.0022   1417.97058     751.1851     418.0022
   1417.95532     751.1055     418.7437   1417.95532     751.1055     418.7437
   1417.94006     752.5997     419.9368   1417.94006     752.5997     419.9368
   1417.92480     752.3341     420.4578   1417.92480     752.3341     420.4578
   1417.90955     753.9694     421.8264   1417.90955     753.9694     421.8264
   1417.89429     753.6976     422.1755   1417.89429     753.6976     422.1755
   1417.87903     756.0349     423.1112   1417.87903     756.0349     423.1112
   1417.86377     755.7130     423.4366   1417.86377     755.7130     423.4366
   1417.84851     755.8173     424.4151   1417.84851     755.8173     424.4151
   1417.83325     756.5421     425.1772   1417.83325     756.5421     425.1772
   1417.81799     757.6645     426.3733   1417.81799     757.6645     426.3733
   1417.80273     759.4163     426.9814   1417.80273     759.4163     426.9814
   1417.78748     759.0975     427.8896   1417.78748     759.0975     427.8896
   1417.77222     760.3125     429.2461   1417.77222     760.3125     429.2461
   1417.75696     760.4871     429.6367   1417.75696     760.4871     429.6367
   1417.74170     762.1821     430.5331   1417.74170     762.1821     430.5331
   1417.72644     763.9955     431.5793   1417.72644     763.9955     431.5793
   1417.71118     764.1208     432.4734   1417.71118     764.1208     432.4734
   1417.69592     765.0594     433.0639   1417.69592     765.0594     433.0639
   1417.68066     763.7950     433.9402   1417.68066     763.7950     433.9402
   1417.66541     766.3538     434.4998   1417.66541     766.3538     434.4998
   1417.65015     767.5179     436.1099   1417.65015     767.5179     436.1099
   1417.63489     766.2823     436.4473   1417.63489     766.2823     436.4473
   1417.61963     768.5540     437.9669   1417.61963     768.5540     437.9669
   1417.60437     769.8958     438.5397   1417.60437     769.8958     438.5397
   1417.58911     770.0277     439.5374   1417.58911     770.0277     439.5374
   1417.57385     770.9476     440.3065   1417.57385     770.9476     440.3065
   1417.55859     773.0191     441.4479   1417.55859     773.0191     441.4479
   1417.54333     773.9110     443.0326   1417.54333     773.9110     443.0326
   1417.52808     773.2952     443.1954   1417.52808     773.2952     443.1954
   1417.51282     774.6630     444.6912   1417.51282     774.6630     444.6912
   1417.49756     774.8234     445.6036   1417.49756     774.8234     445.6036
   1417.48230     775.6106     446.7510   1417.48230     775.6106     446.7510
   1417.46704     777.1568     447.0331   1417.46704     777.1568     447.0331
   1417.45178     778.7422     448.6760   1417.45178     778.7422     448.6760
   1417.43652     778.5156     449.4106   1417.43652     778.5156     449.4106
   1417.42126     778.1931     450.3840   1417.42126     778.1931     450.3840
   1417.40601     779.4700     452.0421   1417.40601     779.4700     452.0421
   1417.39075     780.6215     452.6830   1417.39075     780.6215     452.6830
   1417.37549     780.4385     453.7379   1417.37549     780.4385     453.7379
   1417.36023     782.0294     455.7751   1417.36023     782.0294     455.7751
   1417.34497     782.9289     455.9413   1417.34497     782.9289     455.9413
   1417.32971     781.5253     457.1073   1417.32971     781.5253     457.1073
   1417.31445     783.8004     457.6254   1417.31445     783.8004     457.6254
   1417.29919     785.7510     458.3232   1417.29919     785.7510     458.3232
   1417.28394     785.1858     459.4639   1417.28394     785.1858     459.4639
   1417.26868     785.7919     460.9847   1417.26868     785.7919     460.9847
   1417.25342     787.2152     462.0275   1417.25342     787.2152     462.0275
   1417.23816     787.4269     463.1480   1417.23816     787.4269     463.1480
   1417.22290     787.9069     464.4552   1417.22290     787.9069     464.4552
   1417.20764     788.0136     464.9143   1417.20764     788.0136     464.9143
   1417.19238     789.2344     465.4643   1417.19238     789.2344     465.4643
   1417.17712     790.2650     467.2642   1417.17712     790.2650     467.2642
   1417.16187     790.0792     467.6625   1417.16187     790.0792     467.6625
   1417.14661     791.1423     469.3911   1417.14661     791.1423     469.3911
   1417.13135     792.5430     469.9540   1417.13135     792.5430     469.9540
   1417.11609     791.2666     470.6526   1417.11609     791.2666     470.6526
   1417.10083     792.1108     471.6983   1417.10083     792.1108     471.6983
   1417.08557     793.8187     472.8661   1417.08557     793.8187     472.8661
   1417.07031     793.9548     473.8773   1417.07031     793.9548     473.8773
   1417.05505     794.4772     474.7851   1417.05505     794.4772     474.7851
   1417.03979     795.4301     476.4697   1417.03979     795.4301     476.4697
   1417.02454     794.7421     476.1943   1417.02454     794.7421     476.1943
   1417.00928     795.8429     478.5480   1417.00928     795.8429     478.5480
   1416.99402     796.8376     479.0892   1416.99402     796.8376     479.0892
   1416.97876     796.5618     480.0484   1416.97876     796.5618     480.0484
   1416.96350     797.9960     480.9712   1416.96350     797.9960     480.9712
   1416.94824     797.1941     481.2315   1416.94824     797.1941     481.2315
   1416.93298     798.1929     482.3361   1416.93298     798.1929     482.3361
   1416.91772     798.2850     483.4762   1416.91772     798.2850     483.4762
   1416.90247     799.5851     485.0769   1416.90247     799.5851     485.0769
   1416.88721     799.2911     485.1714   1416.88721     799.2911     485.1714
   1416.87195     800.6450     485.6959   1416.87195     800.6450     485.6959
   1416.85669     800.4404     487.8446   1416.85669     800.4404     487.8446
   1416.84143     800.8650     487.9684   1416.84143     800.8650     487.9684
   1416.82617     801.0197     489.1871   1416.82617     801.0197     489.1871
   1416.81091     802.6735     490.1519   1416.81091     802.6735     490.1519
   1416.79565     801.4250     491.4417   1416.79565     801.4250     491.4417
   1416.78040     801.0732     491.7068   1416.78040     801.0732     491.7068
   1416.76514     801.6367     493.5087   1416.76514     801.6367     493.5087
   1416.74988     802.8596     493.1629   1416.74988     802.8596     493.1629
   1416.73462     801.8575     494.2152   1416.73462     801.8575     494.2152
   1416.71936     803.0745     494.2761   1416.71936     803.0745     494.2761
   1416.70410     803.6473     495.4128   1416.70410     803.6473     495.4128
   1416.68884     803.5443     496.9757   1416.68884     803.5443     496.9757
   1416.67358     802.9319     496.7597   1416.67358     802.9319     496.7597
   1416.65833     804.0461     497.9856   1416.65833     804.0461     497.9856
   1416.64307     804.2019     498.9888   1416.64307     804.2019     498.9888
   1416.62781     803.4939     498.8756   1416.62781     803.4939     498.8756
   1416.61255     804.6413     500.5366   1416.61255     804.6413     500.5366
   1416.59729     804.7747     500.6452   1416.59729     804.7747     500.6452
   1416.58203     803.8076     501.3434   1416.58203     803.8076     501.3434
   1416.56677     805.0833     501.9180   1416.56677     805.0833     501.9180
   1416.55151     805.1920     502.1958   1416.55151     805.1920     502.1958
   1416.53625     804.1514     503.3114   1416.53625     804.1514     503.3114
   1416.52100     804.0906     504.1416   1416.52100     804.0906     504.1416
   1416.50574     804.6775     503.9806   1416.50574     804.6775     503.9806
   1416.49048     804.9249     505.1959   1416.49048     804.9249     505.1959
   1416.47522     804.9225     506.1795   1416.47522     804.9225     506.1795
   1416.45996     803.5134     505.8717   1416.45996     803.5134     505.8717
   1416.44470     805.3471     507.2186   1416.44470     805.3471     507.2186
   1416.42944     803.5764     507.0113   1416.42944     803.5764     507.0113
   1416.41418     803.9027     507.2402   1416.41418     803.9027     507.2402
   1416.39893     802.7364     507.5688   1416.39893     802.7364     507.5688
   1416.38367     804.9198     508.9784   1416.38367     804.9198     508.9784
   1416.36841     803.4238     509.4345   1416.36841     803.4238     509.4345
   1416.35315     805.2038     509.6458   1416.35315     805.2038     509.6458
   1416.33789     803.4722     509.7451   1416.33789     803.4722     509.7451
   1416.32263     802.0771     510.0428   1416.32263     802.0771     510.0428
   1416.30737     802.5703     510.4944   1416.30737     802.5703     510.4944
   1416.29211     802.0541     510.8758   1416.29211     802.0541     510.8758
   1416.27686     801.6380     511.0748   1416.27686     801.6380     511.0748
   1416.26160     803.0148     512.0422   1416.26160     803.0148     512.0422
   1416.24634     801.8608     511.2632   1416.24634     801.8608     511.2632
   1416.23108     801.6960     512.5060   1416.23108     801.6960     512.5060
   1416.21582     801.9679     511.7082   1416.21582     801.9679     511.7082
   1416.20056     800.9042     511.9821   1416.20056     800.9042     511.9821
   1416.18530     799.5387     512.7294   1416.18530     799.5387     512.7294
   1416.17004     799.8102     513.0693   1416.17004     799.8102     513.0693
   1416.15479     799.9066     512.1129   1416.15479     799.9066     512.1129
   1416.13953     799.0638     513.2007   1416.13953     799.0638     513.2007
   1416.12427     799.4286     514.6782   1416.12427     799.4286     514.6782
   1416.10901     796.8491     513.2628   1416.10901     796.8491     513.2628
   1416.09375     797.8738     513.4879   1416.09375     797.8738     513.4879
   1416.07849     798.2891     514.1947   1416.07849     798.2891     514.1947
   1416.06323     796.0294     514.2090   1416.06323     796.0294     514.2090
   1416.04797     796.1014     514.0541   1416.04797     796.1014     514.0541
   1416.03271     796.0276     514.8842   1416.03271     796.0276     514.8842
   1416.01746     795.7913     513.8168   1416.01746     795.7913     513.8168
   1416.00220     795.1418     514.4120   1416.00220     795.1418     514.4120
   1415.98694     793.7983     514.2415   1415.98694     793.7983     514.2415
   1415.97168     793.1959     514.5029   1415.97168     793.1959     514.5029
   1415.95642     794.1569     514.5732   1415.95642     794.1569     514.5732
   1415.94116     792.4342     515.1540   1415.94116     792.4342     515.1540
   1415.92590     791.4192     515.7329   1415.92590     791.4192     515.7329
   1415.91064     792.1102     514.3595   1415.91064     792.1102     514.3595
   1415.89539     791.5123     515.8782   1415.89539     791.5123     515.8782
   1415.88013     790.2837     515.2695   1415.88013     790.2837     515.2695
   1415.86487     788.4305     514.9527   1415.86487     788.4305     514.9527
   1415.84961     789.2673     515.2908   1415.84961     789.2673     515.2908
   1415.83435     789.4695     515.2112   1415.83435     789.4695     515.2112
   1415.81909     787.5754     514.6417   1415.81909     787.5754     514.6417
   1415.80383     787.1309     516.0023   1415.80383     787.1309     516.0023
   1415.78857     786.2242     514.9123   1415.78857     786.2242     514.9123
   1415.77332     785.1633     514.8535   1415.77332     785.1633     514.8535
   1415.75806     785.3771     514.3843   1415.75806     785.3771     514.3843
   1415.74280     783.3057     514.2268   1415.74280     783.3057     514.2268
   1415.72754     784.3398     514.4965   1415.72754     784.3398     514.4965
   1415.71228     782.5372     513.6354   1415.71228     782.5372     513.6354
   1415.69702     781.2565     514.1202   1415.69702     781.2565     514.1202
   1415.68176     781.7233     513.5911   1415.68176     781.7233     513.5911
   1415.66650     780.4103     513.8845   1415.66650     780.4103     513.8845
   1415.65125     780.3695     513.3472   1415.65125     780.3695     513.3472
   1415.63599     779.8148     514.5689   1415.63599     779.8148     514.5689
   1415.62073     776.6980     513.2882   1415.62073     776.6980     513.2882
   1415.60547     777.7182     513.1526   1415.60547     777.7182     513.1526
   1415.59021     777.5878     513.0402   1415.59021     777.5878     513.0402
   1415.57495     775.8088     512.5644   1415.57495     775.8088     512.5644
   1415.55969     774.9897     512.8582   1415.55969     774.9897     512.8582
   1415.54443     774.5627     512.5223   1415.54443     774.5627     512.5223
   1415.52917     772.9340     512.7282   1415.52917     772.9340     512.7282
   1415.51392     772.5964     512.2228   1415.51392     772.5964     512.2228
   1415.49866     771.5950     512.0092   1415.49866     771.5950     512.0092
   1415.48340     771.1236     511.5946   1415.48340     771.1236     511.5946
   1415.46814     770.6080     512.1356   1415.46814     770.6080     512.1356
   1415.45288     768.9852     511.8968   1415.45288     768.9852     511.8968
   1415.43762     768.0146     510.6422   1415.43762     768.0146     510.6422
   1415.42236     765.4893     510.7558   1415.42236     765.4893     510.7558
   1415.40710     765.0667     510.4864   1415.40710     765.0667     510.4864
   1415.39185     763.8807     510.6488   1415.39185     763.8807     510.6488
   1415.37659     763.4089     509.9773   1415.37659     763.4089     509.9773
   1415.36133     762.6075     509.5029   1415.36133     762.6075     509.5029
   1415.34607     760.3306     508.9586   1415.34607     760.3306     508.9586
   1415.33081     760.7181     509.2865   1415.33081     760.7181     509.2865
   1415.31555     759.1573     508.0817   1415.31555     759.1573     508.0817
   1415.30029     756.9953     508.2701   1415.30029     756.9953     508.2701
   1415.28503     755.9633     507.9610   1415.28503     755.9633     507.9610
   1415.26978     755.4899     507.7297   1415.26978     755.4899     507.7297
   1415.25452     754.6849     507.4581   1415.25452     754.6849     507.4581
   1415.23926     755.1614     506.8405   1415.23926     755.1614     506.8405
   1415.22400     751.4291     507.1700   1415.22400     751.4291     507.1700
   1415.20874     750.8286     505.6100   1415.20874     750.8286     505.6100
   1415.19348     749.4342     505.1808   1415.19348     749.4342     505.1808
   1415.17822     748.3958     505.9395   1415.17822     748.3958     505.9395
   1415.16296     746.7255     504.7833   1415.16296     746.7255     504.7833
   1415.14771     745.3337     503.3794   1415.14771     745.3337     503.3794
   1415.13245     744.6334     503.0994   1415.13245     744.6334     503.0994
   1415.11719     743.5086     503.6319   1415.11719     743.5086     503.6319
   1415.10193     742.7334     502.7038   1415.10193     742.7334     502.7038
   1415.08667     741.4200     501.8600   1415.08667     741.4200     501.8600
   1415.07141     738.3828     502.0575   1415.07141     738.3828     502.0575
   1415.05615     737.9673     501.1685   1415.05615     737.9673     501.1685
   1415.04089     736.8721     500.5201   1415.04089     736.8721     500.5201
   1415.02563     735.6210     500.2001   1415.02563     735.6210     500.2001
   1415.01038     733.5539     499.1073   1415.01038     733.5539     499.1073
   1414.99512     731.7989     498.7878   1414.99512     731.7989     498.7878
   1414.97986     731.0287     497.9680   1414.97986     731.0287     497.9680
   1414.96460     730.4786     498.0595   1414.96460     730.4786     498.0595
   1414.94934     728.2867     497.0352   1414.94934     728.2867     497.0352
   1414.93408     726.0624     496.9743   1414.93408     726.0624     496.9743
   1414.91882     724.7335     495.6869   1414.91882     724.7335     495.6869
   1414.90356     721.4807     495.1948   1414.90356     721.4807     495.1948
   1414.88831     721.3292     494.0731   1414.88831     721.3292     494.0731
   1414.87305     720.3034     494.2076   1414.87305     720.3034     494.2076
   1414.85779     718.9562     492.9963   1414.85779     718.9562     492.9963
   1414.84253     716.7767     492.9584   1414.84253     716.7767     492.9584
   1414.82727     714.5624     491.2933   1414.82727     714.5624     491.2933
   1414.81201     712.9703     491.5501   1414.81201     712.9703     491.5501
   1414.79675     711.7012     490.6842   1414.79675     711.7012     490.6842
   1414.78149     710.1566     490.0762   1414.78149     710.1566     490.0762
   1414.76624     707.4414     489.1075   1414.76624     707.4414     489.1075
   1414.75098     705.6277     487.6518   1414.75098     705.6277     487.6518
   1414.73572     704.2968     486.5756   1414.73572     704.2968     486.5756
   1414.72046     702.6838     485.6620   1414.72046     702.6838     485.6620
   1414.70520     700.6402     484.3979   1414.70520     700.6402     484.3979
   1414.68994     699.1945     484.4531   1414.68994     699.1945     484.4531
   1414.67468     697.3229     483.3251   1414.67468     697.3229     483.3251
   1414.65942     694.8495     481.5466   1414.65942     694.8495     481.5466
   1414.64417     694.4996     482.3513   1414.64417     694.4996     482.3513
   1414.62891     691.9391     480.5217   1414.62891     691.9391     480.5217
   1414.61365     688.7076     479.6681   1414.61365     688.7076     479.6681
   1414.59839     688.5659     478.8976   1414.59839     688.5659     478.8976
   1414.58313     685.3709     477.5702   1414.58313     685.3709     477.5702
   1414.56787     683.3640     477.5148   1414.56787     683.3640     477.5148
   1414.55261     680.9691     476.0379   1414.55261     680.9691     476.0379
   1414.53735     678.3052     474.7571   1414.53735     678.3052     474.7571
   1414.52209     676.3919     473.7655   1414.52209     676.3919     473.7655
   1414.50684     675.7397     472.0334   1414.50684     675.7397     472.0334
   1414.49158     672.4039     471.5991   1414.49158     672.4039     471.5991
   1414.47632     671.4331     470.9181   1414.47632     671.4331     470.9181
   1414.46106     669.5861     468.7994   1414.46106     669.5861     468.7994
   1414.44580     666.7103     468.3451   1414.44580     666.7103     468.3451
   1414.43054     662.9615     467.3338   1414.43054     662.9615     467.3338
   1414.41528     662.8226     466.0347   1414.41528     662.8226     466.0347
   1414.40002     661.0038     464.7787   1414.40002     661.0038     464.7787
   1414.38477     657.4379     463.6730   1414.38477     657.4379     463.6730
   1414.36951     655.7727     462.7799   1414.36951     655.7727     462.7799
   1414.35425     654.0776     460.7158   1414.35425     654.0776     460.7158
   1414.33899     650.8284     460.2637   1414.33899     650.8284     460.2637
   1414.32373     647.7122     458.9814   1414.32373     647.7122     458.9814
   1414.30847     646.7775     457.8091   1414.30847     646.7775     457.8091
   1414.29321     644.4357     456.2321   1414.29321     644.4357     456.2321
   1414.27795     641.2417     455.2955   1414.27795     641.2417     455.2955
   1414.26270     639.5515     453.1494   1414.26270     639.5515     453.1494
   1414.24744     636.2663     452.3078   1414.24744     636.2663     452.3078
   1414.23218     634.4894     450.8557   1414.23218     634.4894     450.8557
   1414.21692     630.6274     449.3946   1414.21692     630.6274     449.3946
   1414.20166     627.5060     447.9212   1414.20166     627.5060     447.9212
   1414.18640     626.6172     447.1644   1414.18640     626.6172     447.1644
   1414.17114     624.2593     444.9092   1414.17114     624.2593     444.9092
   1414.15588     621.5599     444.3879   1414.15588     621.5599     444.3879
   1414.14062     619.0315     442.4493   1414.14062     619.0315     442.4493
   1414.12537     616.8464     441.2552   1414.12537     616.8464     441.2552
   1414.11011     612.9219     440.0479   1414.11011     612.9219     440.0479
   1414.09485     611.2570     438.7265   1414.09485     611.2570     438.7265
   1414.07959     607.9954     437.3122   1414.07959     607.9954     437.3122
   1414.06433     605.7962     435.6455   1414.06433     605.7962     435.6455
   1414.04907     604.0663     434.1344   1414.04907     604.0663     434.1344
   1414.03381     600.9793     432.6517   1414.03381     600.9793     432.6517
   1414.01855     598.7299     430.8641   1414.01855     598.7299     430.8641
   1414.00330     616.7091     435.0222   1414.00330     616.7091     435.0222
   1413.98804     594.0936     428.3807   1413.98804     594.0936     428.3807
   1413.97278     589.6465     426.7477   1413.97278     589.6465     426.7477
   1413.95752     588.3739     426.0352   1413.95752     588.3739     426.0352
   1413.94226     584.6282     423.8076   1413.94226     584.6282     423.8076
   1413.92700     581.9648     421.7059   1413.92700     581.9648     421.7059
   1413.91174     579.7388     420.2574   1413.91174     579.7388     420.2574
   1413.89648     576.4690     419.2373   1413.89648     576.4690     419.2373
   1413.88123     573.9807     417.2676   1413.88123     573.9807     417.2676
   1413.86597     570.8175     415.5151   1413.86597     570.8175     415.5151
   1413.85071     568.7291     414.0345   1413.85071     568.7291     414.0345
   1413.83545     565.9890     412.8238   1413.83545     565.9890     412.8238
   1413.82019     563.4366     410.0105   1413.82019     563.4366     410.0105
   1413.80493     559.2164     408.9392   1413.80493     559.2164     408.9392
   1413.78967     557.7006     407.5378   1413.78967     557.7006     407.5378
   1413.77441     554.0930     405.4349   1413.77441     554.0930     405.4349
   1413.75916     552.1707     404.2716   1413.75916     552.1707     404.2716
   1413.74390     547.8444     402.5947   1413.74390     547.8444     402.5947
   1413.72864     545.9155     401.1511   1413.72864     545.9155     401.1511
   1413.71338     542.7968     399.8377   1413.71338     542.7968     399.8377
   1413.69812     540.0554     398.5065   1413.69812     540.0554     398.5065
   1413.68286     537.5504     396.5014   1413.68286     537.5504     396.5014
   1413.66760     534.6553     394.5786   1413.66760     534.6553     394.5786
   1413.65234     532.0653     393.1574   1413.65234     532.0653     393.1574
   1413.63708     528.2537     391.2855   1413.63708     528.2537     391.2855
   1413.62183     525.9977     390.0055   1413.62183     525.9977     390.0055
   1413.60657     523.4650     388.5210   1413.60657     523.4650     388.5210
   1413.59131     520.3400     386.4668   1413.59131     520.3400     386.4668
   1413.57605     518.3717     385.0934   1413.57605     518.3717     385.0934
   1413.56079     515.7133     383.4409   1413.56079     515.7133     383.4409
   1413.54553     512.0944     382.3665   1413.54553     512.0944     382.3665
   1413.53027     509.4937     380.1650   1413.53027     509.4937     380.1650
   1413.51501     507.1882     378.5603   1413.51501     507.1882     378.5603
   1413.49976     504.2512     377.2733   1413.49976     504.2512     377.2733
   1413.48450     501.2704     375.0099   1413.48450     501.2704     375.0099
   1413.46924     498.5749     374.2034   1413.46924     498.5749     374.2034
   1413.45398     495.7029     372.1400   1413.45398     495.7029     372.1400
   1413.43872     492.6218     370.8141   1413.43872     492.6218     370.8141
   1413.42346     489.7532     369.3300   1413.42346     489.7532     369.3300
   1413.40820     487.6611     368.0385   1413.40820     487.6611     368.0385
   1413.39294     485.1479     366.0089   1413.39294     485.1479     366.0089
   1413.37769     481.4734     364.5524   1413.37769     481.4734     364.5524
   1413.36243     478.3299     363.4618   1413.36243     478.3299     363.4618
   1413.34717     476.6763     361.0567   1413.34717     476.6763     361.0567
   1413.33191     473.7942     360.0580   1413.33191     473.7942     360.0580
   1413.31665     471.3988     359.1781   1413.31665     471.3988     359.1781
   1413.30139     468.4380     356.7559   1413.30139     468.4380     356.7559
   1413.28613     466.8938     355.7617   1413.28613     466.8938     355.7617
   1413.27087     463.4742     354.3008   1413.27087     463.4742     354.3008
   1413.25562     461.3016     353.1021   1413.25562     461.3016     353.1021
   1413.24036     459.0876     351.4294   1413.24036     459.0876     351.4294
   1413.22510     455.9575     349.6886   1413.22510     455.9575     349.6886
   1413.20984     454.1534     349.1411   1413.20984     454.1534     349.1411
   1413.19458     450.5934     347.4299   1413.19458     450.5934     347.4299
   1413.17932     448.5193     346.1519   1413.17932     448.5193     346.1519
   1413.16406     446.9237     345.4807   1413.16406     446.9237     345.4807
   1413.14880     443.5636     344.4411   1413.14880     443.5636     344.4411
   1413.13354     442.3462     342.8608   1413.13354     442.3462     342.8608
   1413.11829     439.3276     341.4475   1413.11829     439.3276     341.4475
   1413.10303     436.9553     340.0985   1413.10303     436.9553     340.0985
   1413.08777     434.7660     338.4869   1413.08777     434.7660     338.4869
   1413.07251     432.2264     337.8079   1413.07251     432.2264     337.8079
   1413.05725     430.7191     336.8022   1413.05725     430.7191     336.8022
   1413.04199     428.4305     335.2314   1413.04199     428.4305     335.2314
   1413.02673     426.2059     334.6007   1413.02673     426.2059     334.6007
   1413.01147     424.2789     333.5492   1413.01147     424.2789     333.5492
   1412.99622     421.0991     332.8617   1412.99622     421.0991     332.8617
   1412.98096     420.0772     331.6844   1412.98096     420.0772     331.6844
   1412.96570     418.1649     330.4182   1412.96570     418.1649     330.4182
   1412.95044     416.0595     330.0163   1412.95044     416.0595     330.0163
   1412.93518     413.6927     328.6658   1412.93518     413.6927     328.6658
   1412.91992     411.8875     328.3770   1412.91992     411.8875     328.3770
   1412.90466     410.4330     327.3221   1412.90466     410.4330     327.3221
   1412.88940     408.5867     327.0559   1412.88940     408.5867     327.0559
   1412.87415     407.1914     326.3791   1412.87415     407.1914     326.3791
   1412.85889     405.0659     325.3645   1412.85889     405.0659     325.3645
   1412.84363     403.9438     324.7785   1412.84363     403.9438     324.7785
   1412.82837     401.3688     324.1751   1412.82837     401.3688     324.1751
   1412.81311     400.4967     323.3744   1412.81311     400.4967     323.3744
   1412.79785     398.6439     323.3963   1412.79785     398.6439     323.3963
   1412.78259     396.6817     322.9048   1412.78259     396.6817     322.9048
   1412.76733     395.5700     322.0981   1412.76733     395.5700     322.0981
   1412.75208     394.3221     322.2043   1412.75208     394.3221     322.2043
   1412.73682     392.9049     321.6853   1412.73682     392.9049     321.6853
   1412.72156     391.1282     321.5128   1412.72156     391.1282     321.5128
   1412.70630     390.7695     321.6578   1412.70630     390.7695     321.6578
   1412.69104     389.8764     320.8523   1412.69104     389.8764     320.8523
   1412.67578     388.6867     320.5918   1412.67578     388.6867     320.5918
   1412.66052     387.2728     321.3031   1412.66052     387.2728     321.3031
   1412.64526     386.0189     320.7252   1412.64526     386.0189     320.7252
   1412.63000     384.7483     320.7580   1412.63000     384.7483     320.7580
   1412.61475     384.1272     321.1733   1412.61475     384.1272     321.1733
   1412.59949     383.5159     321.2342   1412.59949     383.5159     321.2342
   1412.58423     382.2720     321.1002   1412.58423     382.2720     321.1002
   1412.56897     382.0053     321.3821   1412.56897     382.0053     321.3821
   1412.55371     380.9799     322.1729   1412.55371     380.9799     322.1729
   1412.53845     379.8177     322.2877   1412.53845     379.8177     322.2877
   1412.52319     378.7822     323.3570   1412.52319     378.7822     323.3570
   1412.50793     379.3796     323.3471   1412.50793     379.3796     323.3471
   1412.49268     378.2614     323.5729   1412.49268     378.2614     323.5729
   1412.47742     377.7978     324.2242   1412.47742     377.7978     324.2242
   1412.46216     377.7629     324.7507   1412.46216     377.7629     324.7507
   1412.44690     377.3096     325.3473   1412.44690     377.3096     325.3473
   1412.43164     376.7509     326.0021   1412.43164     376.7509     326.0021
   1412.41638     376.6624     327.3166   1412.41638     376.6624     327.3166
   1412.40112     376.1753     328.0493   1412.40112     376.1753     328.0493
   1412.38586     376.6430     328.8036   1412.38586     376.6430     328.8036
   1412.37061     375.7087     329.4031   1412.37061     375.7087     329.4031
   1412.35535     376.4943     330.8342   1412.35535     376.4943     330.8342
   1412.34009     375.8013     331.8174   1412.34009     375.8013     331.8174
   1412.32483     376.2256     332.5619   1412.32483     376.2256     332.5619
   1412.30957     375.7781     334.4451   1412.30957     375.7781     334.4451
   1412.29431     376.7532     335.0948   1412.29431     376.7532     335.0948
   1412.27905     377.0728     336.7138   1412.27905     377.0728     336.7138
   1412.26379     375.9003     337.8688   1412.26379     375.9003     337.8688
   1412.24854     376.8506     339.1253   1412.24854     376.8506     339.1253
   1412.23328     378.0773     340.9500   1412.23328     378.0773     340.9500
   1412.21802     378.4003     341.9084   1412.21802     378.4003     341.9084
   1412.20276     379.1983     343.7384   1412.20276     379.1983     343.7384