#     FILENAME=!Skynet_57528_lach-hhg-106_20364_20913.cyb.fits
#     BASENAME=Skynet_57528_lach-hhg-106_20364_20913
#     SRC_NAME=lach-hhg-106
#     OBSERVER=hhgmadison16_9500
#     DATE_OBS=2016-05-20T15:35:25.870
#        OBSID=20364
#      SCANNUM=20913
#          MJD=57528.6506
#          UTC=56214
#     SCANTYPE=track
#     DATAMODE=HIRES
#     TUNEFREQ=1420.0000
# Actual_FREQ1=1420.0000
# Actual_FREQ2=1420.0000
#    LO1Tuning=6870.000
#     RFFILTER=1355_1435
#        OBSBW=-15.6250
#        NCHAN=1024 
#        FOCUS=37.0709
#           RA=22:36:41.16
#          DEC=58:21:53.50
#      RA(hrs)=22.611400
#     DEC(deg)=58.364900
#    AZIM(deg)=317.888
#    ELEV(deg)=50.599
#     IFattens=10.00, 10.00
#      WARNING=None
#    TCAL_XL1=7.9635
#    TCAL_YR1=9.1340
#    TCAL_XL2=7.9635
#    TCAL_YR2=9.1340
#     TRX_XL1=11.7060
#     TRX_YR1=11.7060
#     TRX_XL2=11.7060
#     TRX_YR2=11.7060
#        TAVE=1.0000
#Freq1(MHz)          XL1          YR1  Freq2(MHz)          XL2          YR2 

   1427.81250     295.4380     288.1489   1427.81250     295.4380     288.1489
   1427.79724     296.4437     289.4646   1427.79724     296.4437     289.4646
   1427.78198     296.7017     290.1399   1427.78198     296.7017     290.1399
   1427.76672     297.2394     290.9750   1427.76672     297.2394     290.9750
   1427.75146     298.3960     292.1313   1427.75146     298.3960     292.1313
   1427.73621     298.5880     292.9207   1427.73621     298.5880     292.9207
   1427.72095     299.6601     293.9883   1427.72095     299.6601     293.9883
   1427.70569     300.1586     294.9716   1427.70569     300.1586     294.9716
   1427.69043     301.2495     295.7861   1427.69043     301.2495     295.7861
   1427.67517     301.6022     296.6805   1427.67517     301.6022     296.6805
   1427.65991     302.7584     298.5552   1427.65991     302.7584     298.5552
   1427.64465     303.4373     299.8551   1427.64465     303.4373     299.8551
   1427.62939     304.3352     300.5341   1427.62939     304.3352     300.5341
   1427.61414     305.1708     301.5582   1427.61414     305.1708     301.5582
   1427.59888     306.6325     302.7523   1427.59888     306.6325     302.7523
   1427.58362     307.7860     304.0728   1427.58362     307.7860     304.0728
   1427.56836     308.8926     305.7654   1427.56836     308.8926     305.7654
   1427.55310     310.1999     306.8928   1427.55310     310.1999     306.8928
   1427.53784     311.4608     308.5356   1427.53784     311.4608     308.5356
   1427.52258     312.5400     310.0837   1427.52258     312.5400     310.0837
   1427.50732     314.3886     311.5787   1427.50732     314.3886     311.5787
   1427.49207     314.8354     312.5948   1427.49207     314.8354     312.5948
   1427.47681     316.5864     314.8213   1427.47681     316.5864     314.8213
   1427.46155     318.0592     315.9549   1427.46155     318.0592     315.9549
   1427.44629     319.9389     318.1447   1427.44629     319.9389     318.1447
   1427.43103     321.1564     318.9796   1427.43103     321.1564     318.9796
   1427.41577     322.6551     320.9977   1427.41577     322.6551     320.9977
   1427.40051     324.3945     322.1078   1427.40051     324.3945     322.1078
   1427.38525     326.0203     324.3232   1427.38525     326.0203     324.3232
   1427.37000     327.3710     325.7993   1427.37000     327.3710     325.7993
   1427.35474     329.2376     327.7427   1427.35474     329.2376     327.7427
   1427.33948     330.6906     329.6017   1427.33948     330.6906     329.6017
   1427.32422     332.8248     331.7450   1427.32422     332.8248     331.7450
   1427.30896     333.9573     333.1078   1427.30896     333.9573     333.1078
   1427.29370     335.8763     335.1805   1427.29370     335.8763     335.1805
   1427.27844     337.5207     337.2301   1427.27844     337.5207     337.2301
   1427.26318     339.1741     339.6498   1427.26318     339.1741     339.6498
   1427.24792     341.3054     340.8250   1427.24792     341.3054     340.8250
   1427.23267     343.5215     343.1277   1427.23267     343.5215     343.1277
   1427.21741     344.7656     344.7139   1427.21741     344.7656     344.7139
   1427.20215     347.3540     347.2868   1427.20215     347.3540     347.2868
   1427.18689     349.2392     349.1013   1427.18689     349.2392     349.1013
   1427.17163     351.8205     350.9532   1427.17163     351.8205     350.9532
   1427.15637     353.4442     353.3882   1427.15637     353.4442     353.3882
   1427.14111     355.2782     355.1620   1427.14111     355.2782     355.1620
   1427.12585     357.1609     357.8766   1427.12585     357.1609     357.8766
   1427.11060     359.2392     359.6536   1427.11060     359.2392     359.6536
   1427.09534     361.8171     361.8306   1427.09534     361.8171     361.8306
   1427.08008     364.1951     364.4337   1427.08008     364.1951     364.4337
   1427.06482     365.9460     366.1076   1427.06482     365.9460     366.1076
   1427.04956     368.4894     368.6827   1427.04956     368.4894     368.6827
   1427.03430     369.8374     370.7871   1427.03430     369.8374     370.7871
   1427.01904     373.0320     372.8437   1427.01904     373.0320     372.8437
   1427.00378     374.7487     375.2906   1427.00378     374.7487     375.2906
   1426.98853     376.5537     377.3953   1426.98853     376.5537     377.3953
   1426.97327     379.2842     378.8456   1426.97327     379.2842     378.8456
   1426.95801     381.5948     381.9043   1426.95801     381.5948     381.9043
   1426.94275     383.8346     384.0405   1426.94275     383.8346     384.0405
   1426.92749     386.2174     386.4167   1426.92749     386.2174     386.4167
   1426.91223     388.6032     388.8275   1426.91223     388.6032     388.8275
   1426.89697     391.3132     390.4881   1426.89697     391.3132     390.4881
   1426.88171     393.5044     393.3784   1426.88171     393.5044     393.3784
   1426.86646     395.3428     396.1185   1426.86646     395.3428     396.1185
   1426.85120     398.3965     398.0695   1426.85120     398.3965     398.0695
   1426.83594     400.2780     400.0875   1426.83594     400.2780     400.0875
   1426.82068     402.3093     402.0735   1426.82068     402.3093     402.0735
   1426.80542     404.4938     405.1605   1426.80542     404.4938     405.1605
   1426.79016     407.1873     407.1685   1426.79016     407.1873     407.1685
   1426.77490     409.6469     409.3680   1426.77490     409.6469     409.3680
   1426.75964     412.5357     411.8622   1426.75964     412.5357     411.8622
   1426.74438     414.9263     415.1680   1426.74438     414.9263     415.1680
   1426.72913     417.2763     416.4396   1426.72913     417.2763     416.4396
   1426.71387     419.9545     418.8542   1426.71387     419.9545     418.8542
   1426.69861     422.5728     421.1072   1426.69861     422.5728     421.1072
   1426.68335     423.6487     423.8659   1426.68335     423.6487     423.8659
   1426.66809     426.8951     426.1114   1426.66809     426.8951     426.1114
   1426.65283     429.9290     427.7792   1426.65283     429.9290     427.7792
   1426.63757     431.7058     430.3352   1426.63757     431.7058     430.3352
   1426.62231     434.7477     433.5189   1426.62231     434.7477     433.5189
   1426.60706     436.8580     435.6273   1426.60706     436.8580     435.6273
   1426.59180     438.6889     437.5876   1426.59180     438.6889     437.5876
   1426.57654     441.7628     439.3098   1426.57654     441.7628     439.3098
   1426.56128     443.6278     441.2974   1426.56128     443.6278     441.2974
   1426.54602     447.1922     444.4004   1426.54602     447.1922     444.4004
   1426.53076     447.9803     447.1111   1426.53076     447.9803     447.1111
   1426.51550     450.9610     448.0613   1426.51550     450.9610     448.0613
   1426.50024     453.4135     450.7417   1426.50024     453.4135     450.7417
   1426.48499     454.7042     453.7407   1426.48499     454.7042     453.7407
   1426.46973     458.0290     455.6263   1426.46973     458.0290     455.6263
   1426.45447     460.5399     458.0602   1426.45447     460.5399     458.0602
   1426.43921     462.7015     459.4080   1426.43921     462.7015     459.4080
   1426.42395     464.9141     461.5270   1426.42395     464.9141     461.5270
   1426.40869     467.7793     464.3383   1426.40869     467.7793     464.3383
   1426.39343     469.7508     466.1577   1426.39343     469.7508     466.1577
   1426.37817     472.8040     468.4768   1426.37817     472.8040     468.4768
   1426.36292     474.3598     470.4930   1426.36292     474.3598     470.4930
   1426.34766     476.6927     472.8852   1426.34766     476.6927     472.8852
   1426.33240     478.9803     474.9396   1426.33240     478.9803     474.9396
   1426.31714     481.1974     476.2861   1426.31714     481.1974     476.2861
   1426.30188     484.1710     478.4583   1426.30188     484.1710     478.4583
   1426.28662     486.0155     480.4453   1426.28662     486.0155     480.4453
   1426.27136     488.6549     483.1922   1426.27136     488.6549     483.1922
   1426.25610     490.7002     485.6272   1426.25610     490.7002     485.6272
   1426.24084     492.6714     486.9109   1426.24084     492.6714     486.9109
   1426.22559     494.7961     488.6247   1426.22559     494.7961     488.6247
   1426.21033     496.2819     490.8929   1426.21033     496.2819     490.8929
   1426.19507     498.7630     493.4072   1426.19507     498.7630     493.4072
   1426.17981     501.6474     495.5868   1426.17981     501.6474     495.5868
   1426.16455     502.3824     496.4658   1426.16455     502.3824     496.4658
   1426.14929     504.7819     498.5493   1426.14929     504.7819     498.5493
   1426.13403     505.9299     501.2095   1426.13403     505.9299     501.2095
   1426.11877     509.6601     502.4029   1426.11877     509.6601     502.4029
   1426.10352     510.9729     504.5994   1426.10352     510.9729     504.5994
   1426.08826     513.6036     505.8238   1426.08826     513.6036     505.8238
   1426.07300     515.4590     508.3172   1426.07300     515.4590     508.3172
   1426.05774     516.8063     509.8134   1426.05774     516.8063     509.8134
   1426.04248     518.7457     511.4228   1426.04248     518.7457     511.4228
   1426.02722     521.0116     513.2505   1426.02722     521.0116     513.2505
   1426.01196     522.7986     514.8933   1426.01196     522.7986     514.8933
   1425.99670     525.0497     516.7236   1425.99670     525.0497     516.7236
   1425.98145     526.1616     518.7182   1425.98145     526.1616     518.7182
   1425.96619     529.0128     520.3165   1425.96619     529.0128     520.3165
   1425.95093     530.0551     522.7794   1425.95093     530.0551     522.7794
   1425.93567     531.4662     523.6328   1425.93567     531.4662     523.6328
   1425.92041     533.7304     525.1512   1425.92041     533.7304     525.1512
   1425.90515     535.1310     527.4492   1425.90515     535.1310     527.4492
   1425.88989     537.1890     528.4423   1425.88989     537.1890     528.4423
   1425.87463     538.4921     531.0629   1425.87463     538.4921     531.0629
   1425.85938     540.4967     532.4446   1425.85938     540.4967     532.4446
   1425.84412     542.6135     533.3124   1425.84412     542.6135     533.3124
   1425.82886     543.4238     535.2038   1425.82886     543.4238     535.2038
   1425.81360     545.3271     537.4075   1425.81360     545.3271     537.4075
   1425.79834     547.0889     538.2964   1425.79834     547.0889     538.2964
   1425.78308     547.5458     540.4097   1425.78308     547.5458     540.4097
   1425.76782     550.0958     541.0391   1425.76782     550.0958     541.0391
   1425.75256     551.3916     542.2034   1425.75256     551.3916     542.2034
   1425.73730     552.6365     544.5237   1425.73730     552.6365     544.5237
   1425.72205     552.9556     545.2889   1425.72205     552.9556     545.2889
   1425.70679     554.5886     547.3189   1425.70679     554.5886     547.3189
   1425.69153     556.9661     548.9698   1425.69153     556.9661     548.9698
   1425.67627     557.8415     550.9010   1425.67627     557.8415     550.9010
   1425.66101     558.9462     551.5359   1425.66101     558.9462     551.5359
   1425.64575     560.6162     552.8380   1425.64575     560.6162     552.8380
   1425.63049     562.5057     554.1873   1425.63049     562.5057     554.1873
   1425.61523     562.6737     555.5175   1425.61523     562.6737     555.5175
   1425.59998     565.2600     557.2772   1425.59998     565.2600     557.2772
   1425.58472     566.0117     557.6028   1425.58472     566.0117     557.6028
   1425.56946     566.1843     559.9246   1425.56946     566.1843     559.9246
   1425.55420     568.2136     560.7807   1425.55420     568.2136     560.7807
   1425.53894     569.0582     562.0628   1425.53894     569.0582     562.0628
   1425.52368     570.8820     564.5010   1425.52368     570.8820     564.5010
   1425.50842     571.6439     564.3800   1425.50842     571.6439     564.3800
   1425.49316     572.5460     565.0172   1425.49316     572.5460     565.0172
   1425.47791     573.9810     567.2455   1425.47791     573.9810     567.2455
   1425.46265     574.5805     567.9798   1425.46265     574.5805     567.9798
   1425.44739     575.8411     570.0925   1425.44739     575.8411     570.0925
   1425.43213     575.9290     570.7659   1425.43213     575.9290     570.7659
   1425.41687     577.1510     572.8372   1425.41687     577.1510     572.8372
   1425.40161     577.9873     572.8978   1425.40161     577.9873     572.8978
   1425.38635     579.4423     573.6321   1425.38635     579.4423     573.6321
   1425.37109     580.3498     575.1497   1425.37109     580.3498     575.1497
   1425.35583     580.1501     576.1081   1425.35583     580.1501     576.1081
   1425.34058     582.2268     578.1929   1425.34058     582.2268     578.1929
   1425.32532     581.6425     577.7187   1425.32532     581.6425     577.7187
   1425.31006     583.7153     579.5597   1425.31006     583.7153     579.5597
   1425.29480     584.4031     580.5875   1425.29480     584.4031     580.5875
   1425.27954     585.3419     581.3885   1425.27954     585.3419     581.3885
   1425.26428     585.4822     582.4124   1425.26428     585.4822     582.4124
   1425.24902     586.0980     584.7603   1425.24902     586.0980     584.7603
   1425.23376     586.5927     584.4719   1425.23376     586.5927     584.4719
   1425.21851     587.9905     585.7664   1425.21851     587.9905     585.7664
   1425.20325     588.4875     586.0073   1425.20325     588.4875     586.0073
   1425.18799     587.7180     587.9803   1425.18799     587.7180     587.9803
   1425.17273     588.8572     589.1375   1425.17273     588.8572     589.1375
   1425.15747     589.7598     589.1141   1425.15747     589.7598     589.1141
   1425.14221     591.2349     590.7248   1425.14221     591.2349     590.7248
   1425.12695     590.6133     591.2980   1425.12695     590.6133     591.2980
   1425.11169     590.9958     592.0670   1425.11169     590.9958     592.0670
   1425.09644     591.0001     593.0665   1425.09644     591.0001     593.0665
   1425.08118     593.2009     595.1006   1425.08118     593.2009     595.1006
   1425.06592     593.7682     595.6497   1425.06592     593.7682     595.6497
   1425.05066     593.6796     596.6644   1425.05066     593.6796     596.6644
   1425.03540     594.4553     596.2095   1425.03540     594.4553     596.2095
   1425.02014     594.3704     597.4290   1425.02014     594.3704     597.4290
   1425.00488     594.3074     598.7902   1425.00488     594.3074     598.7902
   1424.98962     594.9831     600.0635   1424.98962     594.9831     600.0635
   1424.97437     596.1803     599.9878   1424.97437     596.1803     599.9878
   1424.95911     595.2232     601.1649   1424.95911     595.2232     601.1649
   1424.94385     596.0543     601.6509   1424.94385     596.0543     601.6509
   1424.92859     596.1556     602.6388   1424.92859     596.1556     602.6388
   1424.91333     596.4179     603.2398   1424.91333     596.4179     603.2398
   1424.89807     597.2708     603.9604   1424.89807     597.2708     603.9604
   1424.88281     596.8757     604.7923   1424.88281     596.8757     604.7923
   1424.86755     597.2290     605.4928   1424.86755     597.2290     605.4928
   1424.85229     597.9512     606.0411   1424.85229     597.9512     606.0411
   1424.83704     597.9343     607.4415   1424.83704     597.9343     607.4415
   1424.82178     598.6501     607.6337   1424.82178     598.6501     607.6337
   1424.80652     597.7669     608.6090   1424.80652     597.7669     608.6090
   1424.79126     598.6981     608.9266   1424.79126     598.6981     608.9266
   1424.77600     597.8756     609.5071   1424.77600     597.8756     609.5071
   1424.76074     599.1804     610.0937   1424.76074     599.1804     610.0937
   1424.74548     598.2017     611.2425   1424.74548     598.2017     611.2425
   1424.73022     598.5666     611.4020   1424.73022     598.5666     611.4020
   1424.71497     598.5320     612.5034   1424.71497     598.5320     612.5034
   1424.69971     598.4383     613.0157   1424.69971     598.4383     613.0157
   1424.68445     598.6338     614.2372   1424.68445     598.6338     614.2372
   1424.66919     599.0969     614.7751   1424.66919     599.0969     614.7751
   1424.65393     598.9581     615.0969   1424.65393     598.9581     615.0969
   1424.63867     598.8109     615.4028   1424.63867     598.8109     615.4028
   1424.62341     599.1279     615.8839   1424.62341     599.1279     615.8839
   1424.60815     598.6512     616.7985   1424.60815     598.6512     616.7985
   1424.59290     598.8597     617.5025   1424.59290     598.8597     617.5025
   1424.57764     599.1283     617.6750   1424.57764     599.1283     617.6750
   1424.56238     598.9020     619.2229   1424.56238     598.9020     619.2229
   1424.54712     599.5804     619.4942   1424.54712     599.5804     619.4942
   1424.53186     598.8755     619.5640   1424.53186     598.8755     619.5640
   1424.51660     598.9000     619.7108   1424.51660     598.9000     619.7108
   1424.50134     599.5663     621.0859   1424.50134     599.5663     621.0859
   1424.48608     598.5297     620.3607   1424.48608     598.5297     620.3607
   1424.47083     599.4916     621.5742   1424.47083     599.4916     621.5742
   1424.45557     599.5344     622.4592   1424.45557     599.5344     622.4592
   1424.44031     598.3603     622.3273   1424.44031     598.3603     622.3273
   1424.42505     598.3658     624.1475   1424.42505     598.3658     624.1475
   1424.40979     598.4798     623.3448   1424.40979     598.4798     623.3448
   1424.39453     598.9078     623.5563   1424.39453     598.9078     623.5563
   1424.37927     599.1080     624.9238   1424.37927     599.1080     624.9238
   1424.36401     599.2431     625.2494   1424.36401     599.2431     625.2494
   1424.34875     598.3268     626.6747   1424.34875     598.3268     626.6747
   1424.33350     599.3331     625.6177   1424.33350     599.3331     625.6177
   1424.31824     597.9340     625.9731   1424.31824     597.9340     625.9731
   1424.30298     597.4783     627.3151   1424.30298     597.4783     627.3151
   1424.28772     598.3472     627.4091   1424.28772     598.3472     627.4091
   1424.27246     598.1786     627.2610   1424.27246     598.1786     627.2610
   1424.25720     597.4218     628.1006   1424.25720     597.4218     628.1006
   1424.24194     597.3058     629.0225   1424.24194     597.3058     629.0225
   1424.22668     596.5356     628.5928   1424.22668     596.5356     628.5928
   1424.21143     597.5053     629.6763   1424.21143     597.5053     629.6763
   1424.19617     598.2390     630.1711   1424.19617     598.2390     630.1711
   1424.18091     596.4171     630.2861   1424.18091     596.4171     630.2861
   1424.16565     596.8945     630.8211   1424.16565     596.8945     630.8211
   1424.15039     596.1391     630.3074   1424.15039     596.1391     630.3074
   1424.13513     597.2546     630.8962   1424.13513     597.2546     630.8962
   1424.11987     595.2695     632.8708   1424.11987     595.2695     632.8708
   1424.10461     596.9459     631.9730   1424.10461     596.9459     631.9730
   1424.08936     596.0803     631.7821   1424.08936     596.0803     631.7821
   1424.07410     595.4020     633.2988   1424.07410     595.4020     633.2988
   1424.05884     595.4799     633.4990   1424.05884     595.4799     633.4990
   1424.04358     595.2563     633.6707   1424.04358     595.2563     633.6707
   1424.02832     595.4099     633.5854   1424.02832     595.4099     633.5854
   1424.01306     594.9139     633.4168   1424.01306     594.9139     633.4168
   1423.99780     594.4517     634.3152   1423.99780     594.4517     634.3152
   1423.98254     593.7187     634.0594   1423.98254     593.7187     634.0594
   1423.96729     593.5175     635.3433   1423.96729     593.5175     635.3433
   1423.95203     594.4265     634.7552   1423.95203     594.4265     634.7552
   1423.93677     593.4137     634.6077   1423.93677     593.4137     634.6077
   1423.92151     592.7925     635.8504   1423.92151     592.7925     635.8504
   1423.90625     594.4803     636.0541   1423.90625     594.4803     636.0541
   1423.89099     593.7897     636.1722   1423.89099     593.7897     636.1722
   1423.87573     593.3539     637.1076   1423.87573     593.3539     637.1076
   1423.86047     593.0015     636.0097   1423.86047     593.0015     636.0097
   1423.84521     592.7939     637.6449   1423.84521     592.7939     637.6449
   1423.82996     593.2486     637.2195   1423.82996     593.2486     637.2195
   1423.81470     592.1765     636.9227   1423.81470     592.1765     636.9227
   1423.79944     592.0283     637.6473   1423.79944     592.0283     637.6473
   1423.78418     592.1884     637.5973   1423.78418     592.1884     637.5973
   1423.76892     591.4117     637.8535   1423.76892     591.4117     637.8535
   1423.75366     591.3900     637.5953   1423.75366     591.3900     637.5953
   1423.73840     591.3773     638.6957   1423.73840     591.3773     638.6957
   1423.72314     590.3682     638.5485   1423.72314     590.3682     638.5485
   1423.70789     590.6964     639.7975   1423.70789     590.6964     639.7975
   1423.69263     590.5681     639.0873   1423.69263     590.5681     639.0873
   1423.67737     589.9748     640.3252   1423.67737     589.9748     640.3252
   1423.66211     591.3425     639.3787   1423.66211     591.3425     639.3787
   1423.64685     590.0030     638.8879   1423.64685     590.0030     638.8879
   1423.63159     589.6542     639.6702   1423.63159     589.6542     639.6702
   1423.61633     589.6427     638.8522   1423.61633     589.6427     638.8522
   1423.60107     589.5215     640.4238   1423.60107     589.5215     640.4238
   1423.58582     589.5979     640.1364   1423.58582     589.5979     640.1364
   1423.57056     589.1395     639.5019   1423.57056     589.1395     639.5019
   1423.55530     588.5643     638.4307   1423.55530     588.5643     638.4307
   1423.54004     588.3127     640.2343   1423.54004     588.3127     640.2343
   1423.52478     588.9785     639.5136   1423.52478     588.9785     639.5136
   1423.50952     587.9053     640.1318   1423.50952     587.9053     640.1318
   1423.49426     587.7636     640.0703   1423.49426     587.7636     640.0703
   1423.47900     587.4736     639.5513   1423.47900     587.4736     639.5513
   1423.46375     587.1625     640.2030   1423.46375     587.1625     640.2030
   1423.44849     587.2772     640.1773   1423.44849     587.2772     640.1773
   1423.43323     586.7918     640.0084   1423.43323     586.7918     640.0084
   1423.41797     586.3165     639.4824   1423.41797     586.3165     639.4824
   1423.40271     586.3453     640.2566   1423.40271     586.3453     640.2566
   1423.38745     586.0485     640.1744   1423.38745     586.0485     640.1744
   1423.37219     586.6265     640.8593   1423.37219     586.6265     640.8593
   1423.35693     586.6249     640.1561   1423.35693     586.6249     640.1561
   1423.34167     585.9645     640.2361   1423.34167     585.9645     640.2361
   1423.32642     586.2290     639.2078   1423.32642     586.2290     639.2078
   1423.31116     585.3753     639.8790   1423.31116     585.3753     639.8790
   1423.29590     585.6310     639.9984   1423.29590     585.6310     639.9984
   1423.28064     585.4322     639.5739   1423.28064     585.4322     639.5739
   1423.26538     584.6309     639.1741   1423.26538     584.6309     639.1741
   1423.25012     585.4864     638.8551   1423.25012     585.4864     638.8551
   1423.23486     585.1136     638.9419   1423.23486     585.1136     638.9419
   1423.21960     584.2413     639.5240   1423.21960     584.2413     639.5240
   1423.20435     583.9264     638.2726   1423.20435     583.9264     638.2726
   1423.18909     583.7345     637.9915   1423.18909     583.7345     637.9915
   1423.17383     584.0482     638.1736   1423.17383     584.0482     638.1736
   1423.15857     584.4202     636.6495   1423.15857     584.4202     636.6495
   1423.14331     583.2079     637.0170   1423.14331     583.2079     637.0170
   1423.12805     584.2045     636.9512   1423.12805     584.2045     636.9512
   1423.11279     582.8542     637.1207   1423.11279     582.8542     637.1207
   1423.09753     583.6705     636.1735   1423.09753     583.6705     636.1735
   1423.08228     583.2191     636.1695   1423.08228     583.2191     636.1695
   1423.06702     582.4965     635.7261   1423.06702     582.4965     635.7261
   1423.05176     582.6140     634.8345   1423.05176     582.6140     634.8345
   1423.03650     583.0570     635.2241   1423.03650     583.0570     635.2241
   1423.02124     583.0654     634.8746   1423.02124     583.0654     634.8746
   1423.00598     582.3785     634.0570   1423.00598     582.3785     634.0570
   1422.99072     582.4604     634.9652   1422.99072     582.4604     634.9652
   1422.97546     582.6785     633.2993   1422.97546     582.6785     633.2993
   1422.96021     582.8962     632.7870   1422.96021     582.8962     632.7870
   1422.94495     582.0869     632.5385   1422.94495     582.0869     632.5385
   1422.92969     581.9347     632.9287   1422.92969     581.9347     632.9287
   1422.91443     581.7344     631.9391   1422.91443     581.7344     631.9391
   1422.89917     581.4505     631.7843   1422.89917     581.4505     631.7843
   1422.88391     580.4678     630.5111   1422.88391     580.4678     630.5111
   1422.86865     581.4479     630.4228   1422.86865     581.4479     630.4228
   1422.85339     580.4496     630.6761   1422.85339     580.4496     630.6761
   1422.83813     581.3011     629.8865   1422.83813     581.3011     629.8865
   1422.82288     580.0426     629.9252   1422.82288     580.0426     629.9252
   1422.80762     580.1169     628.7982   1422.80762     580.1169     628.7982
   1422.79236     580.5295     627.2271   1422.79236     580.5295     627.2271
   1422.77710     579.8189     627.1572   1422.77710     579.8189     627.1572
   1422.76184     579.3915     626.6342   1422.76184     579.3915     626.6342
   1422.74658     579.2377     625.7338   1422.74658     579.2377     625.7338
   1422.73132     578.8054     625.9735   1422.73132     578.8054     625.9735
   1422.71606     579.5827     624.4080   1422.71606     579.5827     624.4080
   1422.70081     578.7187     624.3094   1422.70081     578.7187     624.3094
   1422.68555     579.7521     623.9127   1422.68555     579.7521     623.9127
   1422.67029     579.5658     621.7880   1422.67029     579.5658     621.7880
   1422.65503     578.4911     622.3925   1422.65503     578.4911     622.3925
   1422.63977     577.8594     620.4810   1422.63977     577.8594     620.4810
   1422.62451     577.9738     620.7215   1422.62451     577.9738     620.7215
   1422.60925     577.7145     620.2556   1422.60925     577.7145     620.2556
   1422.59399     577.2391     618.7463   1422.59399     577.2391     618.7463
   1422.57874     578.8640     618.3267   1422.57874     578.8640     618.3267
   1422.56348     577.5160     617.1089   1422.56348     577.5160     617.1089
   1422.54822     577.2216     616.5304   1422.54822     577.2216     616.5304
   1422.53296     578.1081     616.5884   1422.53296     578.1081     616.5884
   1422.51770     577.3701     615.1287   1422.51770     577.3701     615.1287
   1422.50244     576.9197     614.9037   1422.50244     576.9197     614.9037
   1422.48718     577.7465     612.0192   1422.48718     577.7465     612.0192
   1422.47192     576.8853     612.6755   1422.47192     576.8853     612.6755
   1422.45667     575.9196     612.0342   1422.45667     575.9196     612.0342
   1422.44141     577.1676     610.4032   1422.44141     577.1676     610.4032
   1422.42615     577.0609     609.0881   1422.42615     577.0609     609.0881
   1422.41089     576.1915     609.8919   1422.41089     576.1915     609.8919
   1422.39563     576.3147     607.8896   1422.39563     576.3147     607.8896
   1422.38037     576.3310     606.5773   1422.38037     576.3310     606.5773
   1422.36511     575.8097     605.7552   1422.36511     575.8097     605.7552
   1422.34985     575.8326     604.4702   1422.34985     575.8326     604.4702
   1422.33459     575.5777     604.0082   1422.33459     575.5777     604.0082
   1422.31934     575.1801     603.8566   1422.31934     575.1801     603.8566
   1422.30408     575.2653     601.8384   1422.30408     575.2653     601.8384
   1422.28882     575.8321     602.3995   1422.28882     575.8321     602.3995
   1422.27356     574.9365     600.2643   1422.27356     574.9365     600.2643
   1422.25830     575.5602     599.8970   1422.25830     575.5602     599.8970
   1422.24304     573.7552     598.9907   1422.24304     573.7552     598.9907
   1422.22778     574.6401     596.8693   1422.22778     574.6401     596.8693
   1422.21252     574.0434     595.4962   1422.21252     574.0434     595.4962
   1422.19727     574.1271     595.1440   1422.19727     574.1271     595.1440
   1422.18201     574.1134     595.2173   1422.18201     574.1134     595.2173
   1422.16675     573.0276     592.1594   1422.16675     573.0276     592.1594
   1422.15149     573.4461     592.0723   1422.15149     573.4461     592.0723
   1422.13623     572.4846     590.2065   1422.13623     572.4846     590.2065
   1422.12097     572.4584     589.0345   1422.12097     572.4584     589.0345
   1422.10571     573.1735     587.9235   1422.10571     573.1735     587.9235
   1422.09045     572.7413     587.8787   1422.09045     572.7413     587.8787
   1422.07520     573.0282     586.5983   1422.07520     573.0282     586.5983
   1422.05994     572.9643     585.1005   1422.05994     572.9643     585.1005
   1422.04468     573.1521     584.9372   1422.04468     573.1521     584.9372
   1422.02942     571.9888     582.3188   1422.02942     571.9888     582.3188
   1422.01416     572.5887     581.6797   1422.01416     572.5887     581.6797
   1421.99890     572.0589     580.6908   1421.99890     572.0589     580.6908
   1421.98364     570.9493     579.8942   1421.98364     570.9493     579.8942
   1421.96838     571.2341     578.2818   1421.96838     571.2341     578.2818
   1421.95312     571.5448     576.2802   1421.95312     571.5448     576.2802
   1421.93787     571.4548     575.7172   1421.93787     571.4548     575.7172
   1421.92261     570.5331     574.4710   1421.92261     570.5331     574.4710
   1421.90735     571.2249     573.3405   1421.90735     571.2249     573.3405
   1421.89209     570.3207     571.7927   1421.89209     570.3207     571.7927
   1421.87683     569.6702     571.4332   1421.87683     569.6702     571.4332
   1421.86157     570.1165     570.4991   1421.86157     570.1165     570.4991
   1421.84631     570.4351     568.8260   1421.84631     570.4351     568.8260
   1421.83105     570.5713     567.6793   1421.83105     570.5713     567.6793
   1421.81580     569.2792     566.5363   1421.81580     569.2792     566.5363
   1421.80054     569.2546     564.5851   1421.80054     569.2546     564.5851
   1421.78528     569.0088     563.9366   1421.78528     569.0088     563.9366
   1421.77002     569.0540     562.4653   1421.77002     569.0540     562.4653
   1421.75476     569.0128     560.8752   1421.75476     569.0128     560.8752
   1421.73950     567.9350     559.5896   1421.73950     567.9350     559.5896
   1421.72424     568.0508     558.7628   1421.72424     568.0508     558.7628
   1421.70898     568.9811     557.2774   1421.70898     568.9811     557.2774
   1421.69373     567.8689     555.4246   1421.69373     567.8689     555.4246
   1421.67847     567.7361     554.2799   1421.67847     567.7361     554.2799
   1421.66321     567.4006     552.6346   1421.66321     567.4006     552.6346
   1421.64795     567.4902     551.9196   1421.64795     567.4902     551.9196
   1421.63269     566.5893     550.9661   1421.63269     566.5893     550.9661
   1421.61743     567.6130     549.1682   1421.61743     567.6130     549.1682
   1421.60217     566.9346     547.7603   1421.60217     566.9346     547.7603
   1421.58691     566.4965     546.8021   1421.58691     566.4965     546.8021
   1421.57166     566.8604     545.1108   1421.57166     566.8604     545.1108
   1421.55640     565.0795     544.6249   1421.55640     565.0795     544.6249
   1421.54114     565.4425     543.2957   1421.54114     565.4425     543.2957
   1421.52588     566.0109     541.3210   1421.52588     566.0109     541.3210
   1421.51062     566.2116     539.8168   1421.51062     566.2116     539.8168
   1421.49536     564.2663     538.8231   1421.49536     564.2663     538.8231
   1421.48010     565.0991     538.2718   1421.48010     565.0991     538.2718
   1421.46484     565.6055     536.0087   1421.46484     565.6055     536.0087
   1421.44958     564.4451     535.9134   1421.44958     564.4451     535.9134
   1421.43433     564.0955     533.1605   1421.43433     564.0955     533.1605
   1421.41907     564.1672     531.9277   1421.41907     564.1672     531.9277
   1421.40381     564.7614     531.8383   1421.40381     564.7614     531.8383
   1421.38855     564.4890     529.5460   1421.38855     564.4890     529.5460
   1421.37329     563.8198     528.2758   1421.37329     563.8198     528.2758
   1421.35803     563.3463     527.1509   1421.35803     563.3463     527.1509
   1421.34277     564.1333     526.9888   1421.34277     564.1333     526.9888
   1421.32751     563.4674     525.0046   1421.32751     563.4674     525.0046
   1421.31226     564.1044     523.6183   1421.31226     564.1044     523.6183
   1421.29700     564.3257     522.9688   1421.29700     564.3257     522.9688
   1421.28174     564.2989     521.7718   1421.28174     564.2989     521.7718
   1421.26648     564.6016     522.3121   1421.26648     564.6016     522.3121
   1421.25122     565.8590     521.9700   1421.25122     565.8590     521.9700
   1421.23596     567.7437     522.2769   1421.23596     567.7437     522.2769
   1421.22070     570.5672     523.7912   1421.22070     570.5672     523.7912
   1421.20544     574.3705     524.5690   1421.20544     574.3705     524.5690
   1421.19019     576.7387     528.6378   1421.19019     576.7387     528.6378
   1421.17493     579.4648     528.3666   1421.17493     579.4648     528.3666
   1421.15967     582.6233     530.1666   1421.15967     582.6233     530.1666
   1421.14441     588.0477     533.5241   1421.14441     588.0477     533.5241
   1421.12915     594.1309     538.0985   1421.12915     594.1309     538.0985
   1421.11389     592.7900     535.6043   1421.11389     592.7900     535.6043
   1421.09863     588.9064     532.1019   1421.09863     588.9064     532.1019
   1421.08337     590.4779     531.3997   1421.08337     590.4779     531.3997
   1421.06812     598.1390     536.1494   1421.06812     598.1390     536.1494
   1421.05286     606.1115     542.9317   1421.05286     606.1115     542.9317
   1421.03760     619.4998     555.7556   1421.03760     619.4998     555.7556
   1421.02234     633.9502     563.9026   1421.02234     633.9502     563.9026
   1421.00708     655.1804     583.7321   1421.00708     655.1804     583.7321
   1420.99182     707.7873     624.9061   1420.99182     707.7873     624.9061
   1420.97656     742.2264     656.6484   1420.97656     742.2264     656.6484
   1420.96130     715.9387     631.0152   1420.96130     715.9387     631.0152
   1420.94604     673.7491     594.5969   1420.94604     673.7491     594.5969
   1420.93079     648.7765     571.4642   1420.93079     648.7765     571.4642
   1420.91553     645.4592     567.5985   1420.91553     645.4592     567.5985
   1420.90027     656.4800     575.8375   1420.90027     656.4800     575.8375
   1420.88501     685.2162     598.2776   1420.88501     685.2162     598.2776
   1420.86975     734.3818     637.9368   1420.86975     734.3818     637.9368
   1420.85449     810.7496     702.8236   1420.85449     810.7496     702.8236
   1420.83923     920.5644     793.0933   1420.83923     920.5644     793.0933
   1420.82397    1030.8127     887.6462   1420.82397    1030.8127     887.6462
   1420.80872    1215.2667    1039.4218   1420.80872    1215.2667    1039.4218
   1420.79346    1497.6677    1280.0184   1420.79346    1497.6677    1280.0184
   1420.77820    1659.0638    1409.9415   1420.77820    1659.0638    1409.9415
   1420.76294    1617.8403    1371.7510   1420.76294    1617.8403    1371.7510
   1420.74768    1587.4659    1342.2684   1420.74768    1587.4659    1342.2684
   1420.73242    1499.6395    1268.3514   1420.73242    1499.6395    1268.3514
   1420.71716    1347.4247    1137.2386   1420.71716    1347.4247    1137.2386
   1420.70190    1220.1396    1028.6711   1420.70190    1220.1396    1028.6711
   1420.68665    1075.2338     907.7578   1420.68665    1075.2338     907.7578
   1420.67139     957.7786     809.5279   1420.67139     957.7786     809.5279
   1420.65613     887.7718     748.9135   1420.65613     887.7718     748.9135
   1420.64087     871.9778     733.8560   1420.64087     871.9778     733.8560
   1420.62561     870.5584     731.3508   1420.62561     870.5584     731.3508
   1420.61035     854.3806     719.7355   1420.61035     854.3806     719.7355
   1420.59509     844.5095     709.2805   1420.59509     844.5095     709.2805
   1420.57983     963.0187     804.3717   1420.57983     963.0187     804.3717
   1420.56458    1162.3566     966.0357   1420.56458    1162.3566     966.0357
   1420.54932    1228.7402    1017.8829   1420.54932    1228.7402    1017.8829
   1420.53406    1409.0419    1165.1930   1420.53406    1409.0419    1165.1930
   1420.51880    1568.0137    1290.5095   1420.51880    1568.0137    1290.5095
   1420.50354    1423.5848    1173.4109   1420.50354    1423.5848    1173.4109
   1420.48828    1130.6240     930.3522   1420.48828    1130.6240     930.3522
   1420.47302     884.6760     730.9866   1420.47302     884.6760     730.9866
   1420.45776     730.6081     603.0918   1420.45776     730.6081     603.0918
   1420.44250     637.6748     528.8342   1420.44250     637.6748     528.8342
   1420.42725     595.8546     492.2023   1420.42725     595.8546     492.2023
   1420.41199     576.7112     475.0065   1420.41199     576.7112     475.0065
   1420.39673     567.1501     467.9044   1420.39673     567.1501     467.9044
   1420.38147     563.0322     463.3267   1420.38147     563.0322     463.3267
   1420.36621     559.4764     460.1758   1420.36621     559.4764     460.1758
   1420.35095     558.4636     458.0745   1420.35095     558.4636     458.0745
   1420.33569     556.8360     456.9174   1420.33569     556.8360     456.9174
   1420.32043     556.0200     456.2257   1420.32043     556.0200     456.2257
   1420.30518     556.0215     455.3749   1420.30518     556.0215     455.3749
   1420.28992     555.4651     453.2082   1420.28992     555.4651     453.2082
   1420.27466     554.6407     452.7048   1420.27466     554.6407     452.7048
   1420.25940     555.0927     451.1251   1420.25940     555.0927     451.1251
   1420.24414     554.2450     449.9345   1420.24414     554.2450     449.9345
   1420.22888     553.9794     449.3930   1420.22888     553.9794     449.3930
   1420.21362     554.5133     447.4263   1420.21362     554.5133     447.4263
   1420.19836     552.2968     446.1806   1420.19836     552.2968     446.1806
   1420.18311     551.7814     445.3582   1420.18311     551.7814     445.3582
   1420.16785     551.6228     444.6380   1420.16785     551.6228     444.6380
   1420.15259     551.1022     442.6135   1420.15259     551.1022     442.6135
   1420.13733     550.5526     441.5166   1420.13733     550.5526     441.5166
   1420.12207     550.2732     440.1659   1420.12207     550.2732     440.1659
   1420.10681     549.4528     439.7710   1420.10681     549.4528     439.7710
   1420.09155     549.5620     439.0165   1420.09155     549.5620     439.0165
   1420.07629     548.8262     438.1234   1420.07629     548.8262     438.1234
   1420.06104     548.9816     436.7979   1420.06104     548.9816     436.7979
   1420.04578     549.2442     436.6932   1420.04578     549.2442     436.6932
   1420.03052     548.8671     436.0047   1420.03052     548.8671     436.0047
   1420.01526     549.1794     436.4291   1420.01526     549.1794     436.4291
   1420.00000     550.5321     436.2923   1420.00000     550.5321     436.2923
   1419.98474     551.8846     436.1553   1419.98474     551.8846     436.1553
   1419.96948     550.5248     434.4792   1419.96948     550.5248     434.4792
   1419.95422     547.5049     433.0342   1419.95422     547.5049     433.0342
   1419.93896     548.7468     432.8996   1419.93896     548.7468     432.8996
   1419.92371     548.4504     431.4655   1419.92371     548.4504     431.4655
   1419.90845     547.7438     431.5065   1419.90845     547.7438     431.5065
   1419.89319     548.9200     430.2378   1419.89319     548.9200     430.2378
   1419.87793     548.5035     430.6453   1419.87793     548.5035     430.6453
   1419.86267     548.4511     429.7482   1419.86267     548.4511     429.7482
   1419.84741     548.4654     429.9858   1419.84741     548.4654     429.9858
   1419.83215     548.9384     429.4934   1419.83215     548.9384     429.4934
   1419.81689     548.6458     428.8387   1419.81689     548.6458     428.8387
   1419.80164     548.7943     428.2623   1419.80164     548.7943     428.2623
   1419.78638     549.0209     427.6086   1419.78638     549.0209     427.6086
   1419.77112     549.8255     428.1173   1419.77112     549.8255     428.1173
   1419.75586     549.9742     427.0296   1419.75586     549.9742     427.0296
   1419.74060     549.3334     427.4906   1419.74060     549.3334     427.4906
   1419.72534     549.9949     426.6283   1419.72534     549.9949     426.6283
   1419.71008     550.0743     425.9577   1419.71008     550.0743     425.9577
   1419.69482     550.8309     425.8875   1419.69482     550.8309     425.8875
   1419.67957     550.4299     425.8253   1419.67957     550.4299     425.8253
   1419.66431     550.5648     425.6871   1419.66431     550.5648     425.6871
   1419.64905     550.7971     425.7640   1419.64905     550.7971     425.7640
   1419.63379     550.8154     425.5338   1419.63379     550.8154     425.5338
   1419.61853     551.0114     424.9204   1419.61853     551.0114     424.9204
   1419.60327     551.6170     424.5779   1419.60327     551.6170     424.5779
   1419.58801     551.1794     424.5746   1419.58801     551.1794     424.5746
   1419.57275     552.0100     424.3776   1419.57275     552.0100     424.3776
   1419.55750     553.0036     424.3624   1419.55750     553.0036     424.3624
   1419.54224     552.3889     424.0572   1419.54224     552.3889     424.0572
   1419.52698     553.7268     424.0396   1419.52698     553.7268     424.0396
   1419.51172     552.3431     423.6705   1419.51172     552.3431     423.6705
   1419.49646     553.5438     423.4398   1419.49646     553.5438     423.4398
   1419.48120     553.5568     424.0415   1419.48120     553.5568     424.0415
   1419.46594     555.2193     422.8365   1419.46594     555.2193     422.8365
   1419.45068     554.0847     423.4016   1419.45068     554.0847     423.4016
   1419.43542     554.9295     423.9230   1419.43542     554.9295     423.9230
   1419.42017     555.7501     422.9291   1419.42017     555.7501     422.9291
   1419.40491     555.9188     422.8708   1419.40491     555.9188     422.8708
   1419.38965     554.3052     422.5067   1419.38965     554.3052     422.5067
   1419.37439     555.3093     423.2853   1419.37439     555.3093     423.2853
   1419.35913     555.9739     422.7034   1419.35913     555.9739     422.7034
   1419.34387     556.9219     424.0413   1419.34387     556.9219     424.0413
   1419.32861     556.7943     423.9398   1419.32861     556.7943     423.9398
   1419.31335     557.2860     423.3457   1419.31335     557.2860     423.3457
   1419.29810     558.0599     424.1960   1419.29810     558.0599     424.1960
   1419.28284     557.7381     423.2468   1419.28284     557.7381     423.2468
   1419.26758     558.4877     423.8852   1419.26758     558.4877     423.8852
   1419.25232     558.3597     423.4696   1419.25232     558.3597     423.4696
   1419.23706     559.0955     423.3472   1419.23706     559.0955     423.3472
   1419.22180     558.8196     424.3799   1419.22180     558.8196     424.3799
   1419.20654     560.7760     423.4074   1419.20654     560.7760     423.4074
   1419.19128     561.0247     424.8191   1419.19128     561.0247     424.8191
   1419.17603     559.5482     424.8578   1419.17603     559.5482     424.8578
   1419.16077     561.2935     425.0493   1419.16077     561.2935     425.0493
   1419.14551     560.5232     424.5552   1419.14551     560.5232     424.5552
   1419.13025     562.0369     425.1144   1419.13025     562.0369     425.1144
   1419.11499     562.8920     425.1511   1419.11499     562.8920     425.1511
   1419.09973     563.1976     425.8635   1419.09973     563.1976     425.8635
   1419.08447     563.1886     425.7137   1419.08447     563.1886     425.7137
   1419.06921     564.7471     426.0365   1419.06921     564.7471     426.0365
   1419.05396     563.7397     425.6050   1419.05396     563.7397     425.6050
   1419.03870     565.3132     427.1656   1419.03870     565.3132     427.1656
   1419.02344     564.2790     426.3463   1419.02344     564.2790     426.3463
   1419.00818     566.1396     427.0726   1419.00818     566.1396     427.0726
   1418.99292     566.7812     427.3589   1418.99292     566.7812     427.3589
   1418.97766     565.5252     427.8050   1418.97766     565.5252     427.8050
   1418.96240     567.0360     427.4740   1418.96240     567.0360     427.4740
   1418.94714     568.0693     428.9507   1418.94714     568.0693     428.9507
   1418.93188     568.6134     429.4328   1418.93188     568.6134     429.4328
   1418.91663     568.4496     429.3563   1418.91663     568.4496     429.3563
   1418.90137     569.7950     430.4967   1418.90137     569.7950     430.4967
   1418.88611     569.4113     429.8098   1418.88611     569.4113     429.8098
   1418.87085     569.1918     430.0172   1418.87085     569.1918     430.0172
   1418.85559     570.6539     431.0483   1418.85559     570.6539     431.0483
   1418.84033     570.9844     430.6273   1418.84033     570.9844     430.6273
   1418.82507     570.6091     431.3328   1418.82507     570.6091     431.3328
   1418.80981     572.1046     432.3333   1418.80981     572.1046     432.3333
   1418.79456     572.2851     432.8899   1418.79456     572.2851     432.8899
   1418.77930     573.5601     432.4399   1418.77930     573.5601     432.4399
   1418.76404     574.0375     433.5597   1418.76404     574.0375     433.5597
   1418.74878     574.1652     434.6769   1418.74878     574.1652     434.6769
   1418.73352     575.5797     434.4213   1418.73352     575.5797     434.4213
   1418.71826     576.1078     434.3966   1418.71826     576.1078     434.3966
   1418.70300     576.3502     435.5451   1418.70300     576.3502     435.5451
   1418.68774     577.0623     436.8947   1418.68774     577.0623     436.8947
   1418.67249     577.2236     436.4529   1418.67249     577.2236     436.4529
   1418.65723     578.8310     437.4564   1418.65723     578.8310     437.4564
   1418.64197     579.0522     438.3497   1418.64197     579.0522     438.3497
   1418.62671     579.8869     438.5586   1418.62671     579.8869     438.5586
   1418.61145     580.1811     439.1276   1418.61145     580.1811     439.1276
   1418.59619     580.3007     439.8763   1418.59619     580.3007     439.8763
   1418.58093     581.0562     440.7975   1418.58093     581.0562     440.7975
   1418.56567     582.0302     440.9684   1418.56567     582.0302     440.9684
   1418.55042     582.0851     441.9288   1418.55042     582.0851     441.9288
   1418.53516     583.0282     442.1095   1418.53516     583.0282     442.1095
   1418.51990     583.9113     442.7435   1418.51990     583.9113     442.7435
   1418.50464     584.5785     443.8744   1418.50464     584.5785     443.8744
   1418.48938     585.3876     444.7156   1418.48938     585.3876     444.7156
   1418.47412     586.2111     444.7839   1418.47412     586.2111     444.7839
   1418.45886     586.3372     444.6848   1418.45886     586.3372     444.6848
   1418.44360     586.7192     446.3888   1418.44360     586.7192     446.3888
   1418.42834     587.6631     447.2807   1418.42834     587.6631     447.2807
   1418.41309     587.7426     447.2244   1418.41309     587.7426     447.2244
   1418.39783     589.4865     448.8777   1418.39783     589.4865     448.8777
   1418.38257     590.1976     448.6959   1418.38257     590.1976     448.6959
   1418.36731     590.6045     449.9510   1418.36731     590.6045     449.9510
   1418.35205     591.3404     450.5810   1418.35205     591.3404     450.5810
   1418.33679     591.9113     451.0563   1418.33679     591.9113     451.0563
   1418.32153     591.5953     452.2392   1418.32153     591.5953     452.2392
   1418.30627     594.1694     452.5772   1418.30627     594.1694     452.5772
   1418.29102     595.1249     454.9539   1418.29102     595.1249     454.9539
   1418.27576     595.2404     455.1192   1418.27576     595.2404     455.1192
   1418.26050     595.6061     455.5222   1418.26050     595.6061     455.5222
   1418.24524     596.3685     455.8694   1418.24524     596.3685     455.8694
   1418.22998     597.1780     456.8795   1418.22998     597.1780     456.8795
   1418.21472     598.7274     457.7882   1418.21472     598.7274     457.7882
   1418.19946     599.5711     458.4291   1418.19946     599.5711     458.4291
   1418.18420     599.7896     459.5661   1418.18420     599.7896     459.5661
   1418.16895     600.6541     460.4907   1418.16895     600.6541     460.4907
   1418.15369     601.2686     461.0293   1418.15369     601.2686     461.0293
   1418.13843     602.1631     461.7322   1418.13843     602.1631     461.7322
   1418.12317     603.0349     462.7981   1418.12317     603.0349     462.7981
   1418.10791     603.4243     463.6087   1418.10791     603.4243     463.6087
   1418.09265     604.7138     464.7298   1418.09265     604.7138     464.7298
   1418.07739     604.9861     465.1994   1418.07739     604.9861     465.1994
   1418.06213     606.1464     466.6260   1418.06213     606.1464     466.6260
   1418.04688     606.2184     467.9157   1418.04688     606.2184     467.9157
   1418.03162     606.6332     468.2264   1418.03162     606.6332     468.2264
   1418.01636     608.5249     469.2685   1418.01636     608.5249     469.2685
   1418.00110     608.8159     469.5704   1418.00110     608.8159     469.5704
   1417.98584     610.4982     470.6412   1417.98584     610.4982     470.6412
   1417.97058     611.7178     471.6969   1417.97058     611.7178     471.6969
   1417.95532     611.4810     473.3345   1417.95532     611.4810     473.3345
   1417.94006     612.1090     472.9855   1417.94006     612.1090     472.9855
   1417.92480     612.7960     474.8872   1417.92480     612.7960     474.8872
   1417.90955     613.6149     475.1619   1417.90955     613.6149     475.1619
   1417.89429     614.5421     476.2199   1417.89429     614.5421     476.2199
   1417.87903     615.9141     477.1615   1417.87903     615.9141     477.1615
   1417.86377     616.9725     478.8228   1417.86377     616.9725     478.8228
   1417.84851     617.5265     478.7901   1417.84851     617.5265     478.7901
   1417.83325     618.6008     480.2948   1417.83325     618.6008     480.2948
   1417.81799     618.3909     481.7385   1417.81799     618.3909     481.7385
   1417.80273     619.6112     482.8138   1417.80273     619.6112     482.8138
   1417.78748     620.9403     483.4268   1417.78748     620.9403     483.4268
   1417.77222     620.9899     484.6914   1417.77222     620.9899     484.6914
   1417.75696     622.3953     485.5701   1417.75696     622.3953     485.5701
   1417.74170     623.1662     485.8374   1417.74170     623.1662     485.8374
   1417.72644     624.1270     487.0280   1417.72644     624.1270     487.0280
   1417.71118     625.5253     487.6172   1417.71118     625.5253     487.6172
   1417.69592     624.9531     488.9021   1417.69592     624.9531     488.9021
   1417.68066     626.2934     489.9170   1417.68066     626.2934     489.9170
   1417.66541     626.4636     490.4372   1417.66541     626.4636     490.4372
   1417.65015     629.0619     492.0703   1417.65015     629.0619     492.0703
   1417.63489     629.4518     493.3698   1417.63489     629.4518     493.3698
   1417.61963     630.9793     494.3072   1417.61963     630.9793     494.3072
   1417.60437     630.5621     494.5145   1417.60437     630.5621     494.5145
   1417.58911     632.0066     495.3051   1417.58911     632.0066     495.3051
   1417.57385     632.0627     497.0742   1417.57385     632.0627     497.0742
   1417.55859     632.2203     497.7057   1417.55859     632.2203     497.7057
   1417.54333     633.3052     498.3918   1417.54333     633.3052     498.3918
   1417.52808     634.5576     499.6497   1417.52808     634.5576     499.6497
   1417.51282     635.1584     501.6217   1417.51282     635.1584     501.6217
   1417.49756     636.1635     501.3993   1417.49756     636.1635     501.3993
   1417.48230     637.2104     502.3858   1417.48230     637.2104     502.3858
   1417.46704     636.9796     503.0038   1417.46704     636.9796     503.0038
   1417.45178     637.9778     504.4488   1417.45178     637.9778     504.4488
   1417.43652     638.8516     505.4871   1417.43652     638.8516     505.4871
   1417.42126     638.6742     505.5297   1417.42126     638.6742     505.5297
   1417.40601     640.4479     507.0121   1417.40601     640.4479     507.0121
   1417.39075     642.2882     508.2358   1417.39075     642.2882     508.2358
   1417.37549     641.7893     508.1873   1417.37549     641.7893     508.1873
   1417.36023     641.8524     509.7689   1417.36023     641.8524     509.7689
   1417.34497     643.4433     509.9615   1417.34497     643.4433     509.9615
   1417.32971     643.1376     511.3228   1417.32971     643.1376     511.3228
   1417.31445     645.1662     512.0007   1417.31445     645.1662     512.0007
   1417.29919     646.4953     514.0823   1417.29919     646.4953     514.0823
   1417.28394     646.3212     513.6638   1417.28394     646.3212     513.6638
   1417.26868     647.0106     514.8595   1417.26868     647.0106     514.8595
   1417.25342     647.5118     516.0588   1417.25342     647.5118     516.0588
   1417.23816     647.4034     516.7107   1417.23816     647.4034     516.7107
   1417.22290     649.7206     517.1989   1417.22290     649.7206     517.1989
   1417.20764     649.8785     518.7260   1417.20764     649.8785     518.7260
   1417.19238     650.0227     518.5908   1417.19238     650.0227     518.5908
   1417.17712     651.4752     520.5476   1417.17712     651.4752     520.5476
   1417.16187     653.1283     521.0893   1417.16187     653.1283     521.0893
   1417.14661     651.6759     521.3912   1417.14661     651.6759     521.3912
   1417.13135     653.0195     522.2383   1417.13135     653.0195     522.2383
   1417.11609     653.0435     521.9401   1417.11609     653.0435     521.9401
   1417.10083     653.7482     523.5884   1417.10083     653.7482     523.5884
   1417.08557     654.7999     524.1298   1417.08557     654.7999     524.1298
   1417.07031     655.5157     524.3264   1417.07031     655.5157     524.3264
   1417.05505     654.8080     525.6479   1417.05505     654.8080     525.6479
   1417.03979     655.7661     527.0045   1417.03979     655.7661     527.0045
   1417.02454     657.0018     526.4935   1417.02454     657.0018     526.4935
   1417.00928     656.2726     527.1901   1417.00928     656.2726     527.1901
   1416.99402     656.5942     528.5674   1416.99402     656.5942     528.5674
   1416.97876     657.2820     527.5853   1416.97876     657.2820     527.5853
   1416.96350     658.3466     528.8607   1416.96350     658.3466     528.8607
   1416.94824     659.4965     529.3736   1416.94824     659.4965     529.3736
   1416.93298     659.9617     529.5241   1416.93298     659.9617     529.5241
   1416.91772     659.7420     530.7429   1416.91772     659.7420     530.7429
   1416.90247     660.0273     531.4274   1416.90247     660.0273     531.4274
   1416.88721     659.9348     531.3917   1416.88721     659.9348     531.3917
   1416.87195     660.8199     531.9064   1416.87195     660.8199     531.9064
   1416.85669     660.6959     532.0078   1416.85669     660.6959     532.0078
   1416.84143     661.7643     532.8883   1416.84143     661.7643     532.8883
   1416.82617     662.1461     532.6689   1416.82617     662.1461     532.6689
   1416.81091     663.0209     534.2133   1416.81091     663.0209     534.2133
   1416.79565     662.8897     533.9594   1416.79565     662.8897     533.9594
   1416.78040     663.4742     534.6601   1416.78040     663.4742     534.6601
   1416.76514     662.8623     534.9014   1416.76514     662.8623     534.9014
   1416.74988     662.7714     534.8328   1416.74988     662.7714     534.8328
   1416.73462     662.7598     535.2067   1416.73462     662.7598     535.2067
   1416.71936     663.5854     535.3479   1416.71936     663.5854     535.3479
   1416.70410     663.9092     535.4939   1416.70410     663.9092     535.4939
   1416.68884     662.8153     536.4750   1416.68884     662.8153     536.4750
   1416.67358     663.9263     535.4405   1416.67358     663.9263     535.4405
   1416.65833     664.4066     535.7942   1416.65833     664.4066     535.7942
   1416.64307     665.3181     536.9595   1416.64307     665.3181     536.9595
   1416.62781     664.7130     536.4338   1416.62781     664.7130     536.4338
   1416.61255     664.6497     535.8408   1416.61255     664.6497     535.8408
   1416.59729     665.0884     536.2299   1416.59729     665.0884     536.2299
   1416.58203     665.7319     536.8184   1416.58203     665.7319     536.8184
   1416.56677     664.6234     536.3542   1416.56677     664.6234     536.3542
   1416.55151     665.7374     536.3497   1416.55151     665.7374     536.3497
   1416.53625     665.9333     535.8416   1416.53625     665.9333     535.8416
   1416.52100     665.3863     535.6669   1416.52100     665.3863     535.6669
   1416.50574     665.9313     535.9294   1416.50574     665.9313     535.9294
   1416.49048     665.3359     535.9625   1416.49048     665.3359     535.9625
   1416.47522     664.7597     535.9308   1416.47522     664.7597     535.9308
   1416.45996     664.5215     535.8393   1416.45996     664.5215     535.8393
   1416.44470     665.6954     535.7037   1416.44470     665.6954     535.7037
   1416.42944     665.1396     535.5576   1416.42944     665.1396     535.5576
   1416.41418     665.7086     535.2618   1416.41418     665.7086     535.2618
   1416.39893     665.0185     534.6876   1416.39893     665.0185     534.6876
   1416.38367     664.6180     534.7348   1416.38367     664.6180     534.7348
   1416.36841     664.9202     534.0845   1416.36841     664.9202     534.0845
   1416.35315     664.2618     533.9337   1416.35315     664.2618     533.9337
   1416.33789     663.8859     534.4677   1416.33789     663.8859     534.4677
   1416.32263     665.1536     533.8087   1416.32263     665.1536     533.8087
   1416.30737     665.4254     533.0739   1416.30737     665.4254     533.0739
   1416.29211     662.7548     532.6596   1416.29211     662.7548     532.6596
   1416.27686     664.5764     532.6761   1416.27686     664.5764     532.6761
   1416.26160     664.3151     532.1973   1416.26160     664.3151     532.1973
   1416.24634     663.7850     532.7463   1416.24634     663.7850     532.7463
   1416.23108     662.5782     531.5007   1416.23108     662.5782     531.5007
   1416.21582     663.5766     531.8754   1416.21582     663.5766     531.8754
   1416.20056     662.8329     530.9969   1416.20056     662.8329     530.9969
   1416.18530     662.3036     530.7849   1416.18530     662.3036     530.7849
   1416.17004     662.5207     529.6965   1416.17004     662.5207     529.6965
   1416.15479     661.9059     529.0712   1416.15479     661.9059     529.0712
   1416.13953     661.3255     529.7122   1416.13953     661.3255     529.7122
   1416.12427     661.3975     528.0608   1416.12427     661.3975     528.0608
   1416.10901     661.1003     528.1709   1416.10901     661.1003     528.1709
   1416.09375     661.6509     527.2090   1416.09375     661.6509     527.2090
   1416.07849     660.1423     527.0986   1416.07849     660.1423     527.0986
   1416.06323     660.6061     526.8397   1416.06323     660.6061     526.8397
   1416.04797     659.2362     527.4060   1416.04797     659.2362     527.4060
   1416.03271     659.6810     525.8525   1416.03271     659.6810     525.8525
   1416.01746     657.5462     525.5287   1416.01746     657.5462     525.5287
   1416.00220     658.2259     524.6833   1416.00220     658.2259     524.6833
   1415.98694     657.9445     524.1202   1415.98694     657.9445     524.1202
   1415.97168     657.2023     523.9554   1415.97168     657.2023     523.9554
   1415.95642     656.9615     523.6072   1415.95642     656.9615     523.6072
   1415.94116     656.1749     522.6380   1415.94116     656.1749     522.6380
   1415.92590     656.0244     521.9027   1415.92590     656.0244     521.9027
   1415.91064     655.8400     521.6133   1415.91064     655.8400     521.6133
   1415.89539     653.6249     519.9176   1415.89539     653.6249     519.9176
   1415.88013     654.1282     520.8917   1415.88013     654.1282     520.8917
   1415.86487     653.0806     520.4807   1415.86487     653.0806     520.4807
   1415.84961     653.3105     519.5820   1415.84961     653.3105     519.5820
   1415.83435     652.0947     518.8859   1415.83435     652.0947     518.8859
   1415.81909     651.1808     518.3279   1415.81909     651.1808     518.3279
   1415.80383     650.8646     516.7653   1415.80383     650.8646     516.7653
   1415.78857     650.7397     516.7640   1415.78857     650.7397     516.7640
   1415.77332     649.9088     516.0269   1415.77332     649.9088     516.0269
   1415.75806     649.3630     515.2386   1415.75806     649.3630     515.2386
   1415.74280     648.8203     514.8995   1415.74280     648.8203     514.8995
   1415.72754     648.2180     514.9683   1415.72754     648.2180     514.9683
   1415.71228     647.1907     514.0488   1415.71228     647.1907     514.0488
   1415.69702     647.5893     513.5315   1415.69702     647.5893     513.5315
   1415.68176     645.7599     512.5789   1415.68176     645.7599     512.5789
   1415.66650     644.4001     512.6509   1415.66650     644.4001     512.6509
   1415.65125     645.8846     511.3885   1415.65125     645.8846     511.3885
   1415.63599     643.9504     510.3393   1415.63599     643.9504     510.3393
   1415.62073     643.1353     510.8656   1415.62073     643.1353     510.8656
   1415.60547     643.8776     509.6934   1415.60547     643.8776     509.6934
   1415.59021     641.1826     509.1411   1415.59021     641.1826     509.1411
   1415.57495     640.6017     508.4138   1415.57495     640.6017     508.4138
   1415.55969     640.9607     507.9827   1415.55969     640.9607     507.9827
   1415.54443     639.5314     506.7789   1415.54443     639.5314     506.7789
   1415.52917     639.4402     506.2062   1415.52917     639.4402     506.2062
   1415.51392     637.7685     506.0061   1415.51392     637.7685     506.0061
   1415.49866     636.7747     504.1186   1415.49866     636.7747     504.1186
   1415.48340     636.1423     504.7004   1415.48340     636.1423     504.7004
   1415.46814     635.7891     503.7042   1415.46814     635.7891     503.7042
   1415.45288     634.3198     502.1445   1415.45288     634.3198     502.1445
   1415.43762     633.3790     502.0307   1415.43762     633.3790     502.0307
   1415.42236     632.5010     501.2097   1415.42236     632.5010     501.2097
   1415.40710     631.7756     501.0529   1415.40710     631.7756     501.0529
   1415.39185     631.0992     500.6163   1415.39185     631.0992     500.6163
   1415.37659     629.9487     498.9258   1415.37659     629.9487     498.9258
   1415.36133     629.4067     498.3097   1415.36133     629.4067     498.3097
   1415.34607     628.5689     496.9565   1415.34607     628.5689     496.9565
   1415.33081     626.5279     496.8113   1415.33081     626.5279     496.8113
   1415.31555     625.7466     496.1547   1415.31555     625.7466     496.1547
   1415.30029     626.0225     495.8558   1415.30029     626.0225     495.8558
   1415.28503     623.3731     494.3463   1415.28503     623.3731     494.3463
   1415.26978     622.8019     494.2434   1415.26978     622.8019     494.2434
   1415.25452     621.9193     492.1604   1415.25452     621.9193     492.1604
   1415.23926     620.4136     492.4460   1415.23926     620.4136     492.4460
   1415.22400     619.9330     491.3553   1415.22400     619.9330     491.3553
   1415.20874     618.9823     489.6110   1415.20874     618.9823     489.6110
   1415.19348     617.2441     489.7392   1415.19348     617.2441     489.7392
   1415.17822     617.0685     489.2101   1415.17822     617.0685     489.2101
   1415.16296     614.1938     488.5214   1415.16296     614.1938     488.5214
   1415.14771     614.3961     487.5223   1415.14771     614.3961     487.5223
   1415.13245     612.6329     486.2078   1415.13245     612.6329     486.2078
   1415.11719     611.8906     485.4714   1415.11719     611.8906     485.4714
   1415.10193     610.9909     484.2784   1415.10193     610.9909     484.2784
   1415.08667     609.3591     483.8449   1415.08667     609.3591     483.8449
   1415.07141     608.4749     482.8379   1415.07141     608.4749     482.8379
   1415.05615     606.3566     481.5198   1415.05615     606.3566     481.5198
   1415.04089     605.3872     481.1473   1415.04089     605.3872     481.1473
   1415.02563     603.6385     480.0500   1415.02563     603.6385     480.0500
   1415.01038     601.7172     478.2538   1415.01038     601.7172     478.2538
   1414.99512     601.9436     477.8321   1414.99512     601.9436     477.8321
   1414.97986     600.1202     477.6669   1414.97986     600.1202     477.6669
   1414.96460     599.1744     476.5223   1414.96460     599.1744     476.5223
   1414.94934     596.3376     476.1381   1414.94934     596.3376     476.1381
   1414.93408     595.5754     475.0103   1414.93408     595.5754     475.0103
   1414.91882     594.1897     473.6982   1414.91882     594.1897     473.6982
   1414.90356     592.6462     472.1024   1414.90356     592.6462     472.1024
   1414.88831     590.4353     471.0436   1414.88831     590.4353     471.0436
   1414.87305     589.4323     470.9116   1414.87305     589.4323     470.9116
   1414.85779     587.8557     469.8549   1414.85779     587.8557     469.8549
   1414.84253     586.3599     468.9119   1414.84253     586.3599     468.9119
   1414.82727     585.1511     467.3975   1414.82727     585.1511     467.3975
   1414.81201     584.1066     465.9335   1414.81201     584.1066     465.9335
   1414.79675     582.1250     464.3172   1414.79675     582.1250     464.3172
   1414.78149     580.3044     464.4554   1414.78149     580.3044     464.4554
   1414.76624     579.6586     462.6354   1414.76624     579.6586     462.6354
   1414.75098     577.2455     463.0061   1414.75098     577.2455     463.0061
   1414.73572     575.8536     461.3798   1414.73572     575.8536     461.3798
   1414.72046     573.6119     459.9820   1414.72046     573.6119     459.9820
   1414.70520     572.6337     459.2835   1414.70520     572.6337     459.2835
   1414.68994     570.1520     458.1150   1414.68994     570.1520     458.1150
   1414.67468     568.2812     455.9081   1414.67468     568.2812     455.9081
   1414.65942     566.6448     455.9486   1414.65942     566.6448     455.9486
   1414.64417     566.2211     454.4389   1414.64417     566.2211     454.4389
   1414.62891     564.1572     453.4330   1414.62891     564.1572     453.4330
   1414.61365     562.1581     451.9350   1414.61365     562.1581     451.9350
   1414.59839     559.9333     451.0822   1414.59839     559.9333     451.0822
   1414.58313     558.3106     449.3360   1414.58313     558.3106     449.3360
   1414.56787     555.9758     448.3651   1414.56787     555.9758     448.3651
   1414.55261     554.5156     447.3158   1414.55261     554.5156     447.3158
   1414.53735     552.3495     446.5965   1414.53735     552.3495     446.5965
   1414.52209     550.8524     444.9586   1414.52209     550.8524     444.9586
   1414.50684     548.7769     442.9536   1414.50684     548.7769     442.9536
   1414.49158     547.4396     442.0186   1414.49158     547.4396     442.0186
   1414.47632     545.2894     440.7413   1414.47632     545.2894     440.7413
   1414.46106     543.5261     440.0040   1414.46106     543.5261     440.0040
   1414.44580     541.4543     439.3355   1414.44580     541.4543     439.3355
   1414.43054     539.3099     437.0438   1414.43054     539.3099     437.0438
   1414.41528     536.6561     436.1316   1414.41528     536.6561     436.1316
   1414.40002     534.4584     434.4046   1414.40002     534.4584     434.4046
   1414.38477     533.5618     432.5726   1414.38477     533.5618     432.5726
   1414.36951     531.3272     431.6968   1414.36951     531.3272     431.6968
   1414.35425     528.8990     430.8817   1414.35425     528.8990     430.8817
   1414.33899     526.6517     429.2503   1414.33899     526.6517     429.2503
   1414.32373     525.2216     427.2862   1414.32373     525.2216     427.2862
   1414.30847     522.4472     426.2352   1414.30847     522.4472     426.2352
   1414.29321     521.4526     425.6343   1414.29321     521.4526     425.6343
   1414.27795     518.3223     423.7191   1414.27795     518.3223     423.7191
   1414.26270     516.1457     422.1595   1414.26270     516.1457     422.1595
   1414.24744     513.7946     420.9578   1414.24744     513.7946     420.9578
   1414.23218     511.7893     418.6357   1414.23218     511.7893     418.6357
   1414.21692     509.1776     417.3614   1414.21692     509.1776     417.3614
   1414.20166     507.7434     416.4874   1414.20166     507.7434     416.4874
   1414.18640     505.2719     414.6198   1414.18640     505.2719     414.6198
   1414.17114     503.0605     413.3834   1414.17114     503.0605     413.3834
   1414.15588     501.0077     412.8182   1414.15588     501.0077     412.8182
   1414.14062     497.9840     410.7257   1414.14062     497.9840     410.7257
   1414.12537     495.9526     409.3687   1414.12537     495.9526     409.3687
   1414.11011     493.8446     407.5426   1414.11011     493.8446     407.5426
   1414.09485     491.4373     406.1846   1414.09485     491.4373     406.1846
   1414.07959     489.5465     404.4713   1414.07959     489.5465     404.4713
   1414.06433     487.3196     403.1455   1414.06433     487.3196     403.1455
   1414.04907     484.2562     400.8705   1414.04907     484.2562     400.8705
   1414.03381     482.7307     399.9980   1414.03381     482.7307     399.9980
   1414.01855     481.0898     398.8445   1414.01855     481.0898     398.8445
   1414.00330     494.8775     403.2915   1414.00330     494.8775     403.2915
   1413.98804     476.7389     396.3015   1413.98804     476.7389     396.3015
   1413.97278     473.2583     393.8811   1413.97278     473.2583     393.8811
   1413.95752     471.2296     392.1380   1413.95752     471.2296     392.1380
   1413.94226     468.2762     391.3720   1413.94226     468.2762     391.3720
   1413.92700     466.1411     389.4654   1413.92700     466.1411     389.4654
   1413.91174     463.4485     387.5437   1413.91174     463.4485     387.5437
   1413.89648     461.8426     385.7590   1413.89648     461.8426     385.7590
   1413.88123     458.9905     384.2922   1413.88123     458.9905     384.2922
   1413.86597     456.2728     382.9201   1413.86597     456.2728     382.9201
   1413.85071     453.4918     381.2368   1413.85071     453.4918     381.2368
   1413.83545     451.3421     379.6497   1413.83545     451.3421     379.6497
   1413.82019     449.0383     378.2425   1413.82019     449.0383     378.2425
   1413.80493     446.6721     376.4993   1413.80493     446.6721     376.4993
   1413.78967     444.2340     374.8319   1413.78967     444.2340     374.8319
   1413.77441     441.4828     373.2905   1413.77441     441.4828     373.2905
   1413.75916     438.8937     371.1020   1413.75916     438.8937     371.1020
   1413.74390     437.0204     370.4000   1413.74390     437.0204     370.4000
   1413.72864     434.0240     368.3796   1413.72864     434.0240     368.3796
   1413.71338     431.7780     366.3124   1413.71338     431.7780     366.3124
   1413.69812     429.7768     365.1516   1413.69812     429.7768     365.1516
   1413.68286     427.2429     363.5961   1413.68286     427.2429     363.5961
   1413.66760     425.1942     361.8201   1413.66760     425.1942     361.8201
   1413.65234     422.8579     360.5675   1413.65234     422.8579     360.5675
   1413.63708     419.7520     359.0332   1413.63708     419.7520     359.0332
   1413.62183     417.8907     357.2403   1413.62183     417.8907     357.2403
   1413.60657     414.9086     355.6873   1413.60657     414.9086     355.6873
   1413.59131     412.9346     354.0680   1413.59131     412.9346     354.0680
   1413.57605     409.7562     352.5560   1413.57605     409.7562     352.5560
   1413.56079     407.7471     351.0810   1413.56079     407.7471     351.0810
   1413.54553     405.8474     349.5666   1413.54553     405.8474     349.5666
   1413.53027     402.9355     347.7190   1413.53027     402.9355     347.7190
   1413.51501     400.6596     346.5029   1413.51501     400.6596     346.5029
   1413.49976     398.7313     344.8385   1413.49976     398.7313     344.8385
   1413.48450     396.3698     342.6388   1413.48450     396.3698     342.6388
   1413.46924     394.1131     341.5505   1413.46924     394.1131     341.5505
   1413.45398     391.6618     339.9868   1413.45398     391.6618     339.9868
   1413.43872     389.2022     338.8120   1413.43872     389.2022     338.8120
   1413.42346     386.3295     337.1495   1413.42346     386.3295     337.1495
   1413.40820     384.0839     335.8855   1413.40820     384.0839     335.8855
   1413.39294     382.3614     333.7258   1413.39294     382.3614     333.7258
   1413.37769     380.0041     332.2905   1413.37769     380.0041     332.2905
   1413.36243     377.9455     331.2049   1413.36243     377.9455     331.2049
   1413.34717     375.3403     329.5920   1413.34717     375.3403     329.5920
   1413.33191     373.4543     328.1683   1413.33191     373.4543     328.1683
   1413.31665     371.0739     326.5096   1413.31665     371.0739     326.5096
   1413.30139     368.8587     325.1886   1413.30139     368.8587     325.1886
   1413.28613     366.4317     324.1817   1413.28613     366.4317     324.1817
   1413.27087     364.3545     322.2469   1413.27087     364.3545     322.2469
   1413.25562     362.2797     320.4798   1413.25562     362.2797     320.4798
   1413.24036     360.7567     319.9698   1413.24036     360.7567     319.9698
   1413.22510     358.2372     317.8920   1413.22510     358.2372     317.8920
   1413.20984     356.2271     317.0631   1413.20984     356.2271     317.0631
   1413.19458     354.1535     316.0467   1413.19458     354.1535     316.0467
   1413.17932     351.7772     314.4034   1413.17932     351.7772     314.4034
   1413.16406     350.1833     313.1109   1413.16406     350.1833     313.1109
   1413.14880     348.4517     311.7661   1413.14880     348.4517     311.7661
   1413.13354     346.4273     310.4509   1413.13354     346.4273     310.4509
   1413.11829     344.5959     309.3616   1413.11829     344.5959     309.3616
   1413.10303     342.3582     308.2192   1413.10303     342.3582     308.2192
   1413.08777     341.1979     306.8666   1413.08777     341.1979     306.8666
   1413.07251     338.9390     305.2410   1413.07251     338.9390     305.2410
   1413.05725     336.8395     304.2177   1413.05725     336.8395     304.2177
   1413.04199     335.3292     303.4586   1413.04199     335.3292     303.4586
   1413.02673     333.8171     302.5152   1413.02673     333.8171     302.5152
   1413.01147     331.5465     300.8536   1413.01147     331.5465     300.8536
   1412.99622     329.9626     300.1696   1412.99622     329.9626     300.1696
   1412.98096     328.1201     298.8335   1412.98096     328.1201     298.8335
   1412.96570     326.9013     298.1219   1412.96570     326.9013     298.1219
   1412.95044     324.9846     297.0753   1412.95044     324.9846     297.0753
   1412.93518     323.5422     296.1985   1412.93518     323.5422     296.1985
   1412.91992     322.3852     294.7800   1412.91992     322.3852     294.7800
   1412.90466     320.6492     294.3256   1412.90466     320.6492     294.3256
   1412.88940     319.0622     293.5569   1412.88940     319.0622     293.5569
   1412.87415     318.0307     292.4454   1412.87415     318.0307     292.4454
   1412.85889     316.5275     291.3624   1412.85889     316.5275     291.3624
   1412.84363     314.9936     290.8308   1412.84363     314.9936     290.8308
   1412.82837     313.4547     290.0243   1412.82837     313.4547     290.0243
   1412.81311     312.3274     288.9890   1412.81311     312.3274     288.9890
   1412.79785     311.6926     288.6967   1412.79785     311.6926     288.6967
   1412.78259     309.7119     287.7660   1412.78259     309.7119     287.7660
   1412.76733     309.1153     287.3771   1412.76733     309.1153     287.3771
   1412.75208     307.8913     286.5080   1412.75208     307.8913     286.5080
   1412.73682     306.4604     285.5001   1412.73682     306.4604     285.5001
   1412.72156     305.5873     285.5522   1412.72156     305.5873     285.5522
   1412.70630     305.1735     284.5020   1412.70630     305.1735     284.5020
   1412.69104     303.7411     284.3570   1412.69104     303.7411     284.3570
   1412.67578     302.8441     283.7994   1412.67578     302.8441     283.7994
   1412.66052     301.9263     283.4784   1412.66052     301.9263     283.4784
   1412.64526     300.7072     283.1035   1412.64526     300.7072     283.1035
   1412.63000     299.9266     282.6714   1412.63000     299.9266     282.6714
   1412.61475     298.8157     282.3381   1412.61475     298.8157     282.3381
   1412.59949     298.9283     282.2472   1412.59949     298.9283     282.2472
   1412.58423     297.6414     282.1720   1412.58423     297.6414     282.1720
   1412.56897     297.4686     281.4761   1412.56897     297.4686     281.4761
   1412.55371     296.3585     281.1878   1412.55371     296.3585     281.1878
   1412.53845     296.2987     281.0923   1412.53845     296.2987     281.0923
   1412.52319     295.5852     280.9838   1412.52319     295.5852     280.9838
   1412.50793     295.2200     281.3759   1412.50793     295.2200     281.3759
   1412.49268     294.8231     280.8004   1412.49268     294.8231     280.8004
   1412.47742     294.6530     280.8079   1412.47742     294.6530     280.8079
   1412.46216     293.8207     281.1430   1412.46216     293.8207     281.1430
   1412.44690     293.5373     281.6845   1412.44690     293.5373     281.6845
   1412.43164     293.8328     281.2228   1412.43164     293.8328     281.2228
   1412.41638     292.7682     281.3161   1412.41638     292.7682     281.3161
   1412.40112     292.6699     281.0768   1412.40112     292.6699     281.0768
   1412.38586     293.3444     281.7937   1412.38586     293.3444     281.7937
   1412.37061     292.6021     282.5047   1412.37061     292.6021     282.5047
   1412.35535     292.9515     282.3056   1412.35535     292.9515     282.3056
   1412.34009     292.5464     283.0675   1412.34009     292.5464     283.0675
   1412.32483     292.7554     283.6932   1412.32483     292.7554     283.6932
   1412.30957     293.0514     283.6086   1412.30957     293.0514     283.6086
   1412.29431     292.9471     283.7231   1412.29431     292.9471     283.7231
   1412.27905     293.3106     284.7125   1412.27905     293.3106     284.7125
   1412.26379     294.0920     285.1403   1412.26379     294.0920     285.1403
   1412.24854     293.8752     286.0338   1412.24854     293.8752     286.0338
   1412.23328     294.1196     286.1536   1412.23328     294.1196     286.1536
   1412.21802     295.0342     287.4067   1412.21802     295.0342     287.4067
   1412.20276     295.2241     287.2837   1412.20276     295.2241     287.2837