#     FILENAME=!Skynet_57528_lachhhg93_20325_20900.cyb.fits
#     BASENAME=Skynet_57528_lachhhg93_20325_20900
#     SRC_NAME=lachhhg93
#     OBSERVER=hhgmadison16_9500
#     DATE_OBS=2016-05-20T15:09:46.750
#        OBSID=20325
#      SCANNUM=20900
#          MJD=57528.6328
#          UTC=54675
#     SCANTYPE=track
#     DATAMODE=HIRES
#     TUNEFREQ=1420.0000
# Actual_FREQ1=1420.0000
# Actual_FREQ2=1420.0000
#    LO1Tuning=6870.000
#     RFFILTER=1355_1435
#        OBSBW=-15.6250
#        NCHAN=1024 
#        FOCUS=37.0709
#           RA=21:24:54.36
#          DEC=50:28:08.26
#      RA(hrs)=21.415100
#     DEC(deg)=50.469000
#    AZIM(deg)=306.691
#    ELEV(deg)=43.565
#     IFattens=11.00, 10.00
#      WARNING=None
#    TCAL_XL1=7.9635
#    TCAL_YR1=9.1340
#    TCAL_XL2=7.9635
#    TCAL_YR2=9.1340
#     TRX_XL1=11.7060
#     TRX_YR1=11.7060
#     TRX_XL2=11.7060
#     TRX_YR2=11.7060
#        TAVE=1.0000
#Freq1(MHz)          XL1          YR1  Freq2(MHz)          XL2          YR2 

   1427.81250     295.1431     236.0854   1427.81250     295.1431     236.0854
   1427.79724     295.4925     236.4217   1427.79724     295.4925     236.4217
   1427.78198     296.2845     237.2964   1427.78198     296.2845     237.2964
   1427.76672     296.9149     237.6694   1427.76672     296.9149     237.6694
   1427.75146     297.3417     238.9406   1427.75146     297.3417     238.9406
   1427.73621     298.2615     239.3777   1427.73621     298.2615     239.3777
   1427.72095     298.5705     240.1933   1427.72095     298.5705     240.1933
   1427.70569     299.7841     240.9888   1427.70569     299.7841     240.9888
   1427.69043     300.2798     241.6893   1427.69043     300.2798     241.6893
   1427.67517     301.3144     242.4369   1427.67517     301.3144     242.4369
   1427.65991     302.2520     243.7031   1427.65991     302.2520     243.7031
   1427.64465     302.6443     244.0687   1427.64465     302.6443     244.0687
   1427.62939     304.0361     245.3898   1427.62939     304.0361     245.3898
   1427.61414     304.9297     246.3873   1427.61414     304.9297     246.3873
   1427.59888     306.2903     247.1972   1427.59888     306.2903     247.1972
   1427.58362     307.3655     248.4736   1427.58362     307.3655     248.4736
   1427.56836     309.0927     249.6380   1427.56836     309.0927     249.6380
   1427.55310     309.6859     250.2474   1427.55310     309.6859     250.2474
   1427.53784     311.0706     251.5829   1427.53784     311.0706     251.5829
   1427.52258     312.2955     253.1658   1427.52258     312.2955     253.1658
   1427.50732     313.8105     253.6520   1427.50732     313.8105     253.6520
   1427.49207     315.1009     254.8179   1427.49207     315.1009     254.8179
   1427.47681     316.6675     256.4010   1427.47681     316.6675     256.4010
   1427.46155     318.0285     257.4686   1427.46155     318.0285     257.4686
   1427.44629     319.2595     258.4005   1427.44629     319.2595     258.4005
   1427.43103     320.7255     259.7476   1427.43103     320.7255     259.7476
   1427.41577     322.3479     261.0329   1427.41577     322.3479     261.0329
   1427.40051     324.0516     262.5452   1427.40051     324.0516     262.5452
   1427.38525     325.8969     263.9616   1427.38525     325.8969     263.9616
   1427.37000     327.0938     265.2027   1427.37000     327.0938     265.2027
   1427.35474     328.9342     266.6436   1427.35474     328.9342     266.6436
   1427.33948     331.1443     268.3134   1427.33948     331.1443     268.3134
   1427.32422     332.4170     269.7074   1427.32422     332.4170     269.7074
   1427.30896     333.9001     271.0804   1427.30896     333.9001     271.0804
   1427.29370     335.7129     272.5121   1427.29370     335.7129     272.5121
   1427.27844     337.7818     273.7792   1427.27844     337.7818     273.7792
   1427.26318     339.6202     275.6323   1427.26318     339.6202     275.6323
   1427.24792     342.0162     277.2372   1427.24792     342.0162     277.2372
   1427.23267     343.5898     279.1639   1427.23267     343.5898     279.1639
   1427.21741     345.7570     280.6216   1427.21741     345.7570     280.6216
   1427.20215     347.4930     281.9028   1427.20215     347.4930     281.9028
   1427.18689     349.7188     284.0848   1427.18689     349.7188     284.0848
   1427.17163     351.4486     285.2111   1427.17163     351.4486     285.2111
   1427.15637     353.3120     286.7685   1427.15637     353.3120     286.7685
   1427.14111     356.0001     288.2740   1427.14111     356.0001     288.2740
   1427.12585     358.2214     289.8609   1427.12585     358.2214     289.8609
   1427.11060     360.2938     291.9741   1427.11060     360.2938     291.9741
   1427.09534     362.5031     293.6212   1427.09534     362.5031     293.6212
   1427.08008     363.8499     294.4454   1427.08008     363.8499     294.4454
   1427.06482     367.4402     296.8330   1427.06482     367.4402     296.8330
   1427.04956     369.0208     297.8591   1427.04956     369.0208     297.8591
   1427.03430     371.2565     300.5207   1427.03430     371.2565     300.5207
   1427.01904     373.4971     301.7402   1427.01904     373.4971     301.7402
   1427.00378     375.5243     303.6564   1427.00378     375.5243     303.6564
   1426.98853     378.4174     305.2527   1426.98853     378.4174     305.2527
   1426.97327     380.2863     307.2365   1426.97327     380.2863     307.2365
   1426.95801     382.2934     308.8450   1426.95801     382.2934     308.8450
   1426.94275     385.1043     310.6243   1426.94275     385.1043     310.6243
   1426.92749     387.2103     312.4170   1426.92749     387.2103     312.4170
   1426.91223     389.3432     314.3180   1426.91223     389.3432     314.3180
   1426.89697     391.5845     316.1574   1426.89697     391.5845     316.1574
   1426.88171     394.7216     317.9628   1426.88171     394.7216     317.9628
   1426.86646     397.0943     319.7236   1426.86646     397.0943     319.7236
   1426.85120     399.2117     320.9097   1426.85120     399.2117     320.9097
   1426.83594     401.0776     323.0284   1426.83594     401.0776     323.0284
   1426.82068     404.3528     325.2375   1426.82068     404.3528     325.2375
   1426.80542     406.5760     326.4225   1426.80542     406.5760     326.4225
   1426.79016     408.8175     328.9544   1426.79016     408.8175     328.9544
   1426.77490     410.7910     330.6570   1426.77490     410.7910     330.6570
   1426.75964     413.1309     332.0397   1426.75964     413.1309     332.0397
   1426.74438     416.4863     334.1451   1426.74438     416.4863     334.1451
   1426.72913     418.8537     336.3181   1426.72913     418.8537     336.3181
   1426.71387     420.4208     337.7913   1426.71387     420.4208     337.7913
   1426.69861     423.2495     339.7343   1426.69861     423.2495     339.7343
   1426.68335     426.0731     341.6129   1426.68335     426.0731     341.6129
   1426.66809     428.4315     343.4471   1426.66809     428.4315     343.4471
   1426.65283     431.0564     345.0528   1426.65283     431.0564     345.0528
   1426.63757     433.5420     347.1284   1426.63757     433.5420     347.1284
   1426.62231     437.4503     352.3967   1426.62231     437.4503     352.3967
   1426.60706     438.8866     350.6050   1426.60706     438.8866     350.6050
   1426.59180     440.8929     351.8776   1426.59180     440.8929     351.8776
   1426.57654     443.6110     353.6542   1426.57654     443.6110     353.6542
   1426.56128     445.6501     356.3912   1426.56128     445.6501     356.3912
   1426.54602     448.4910     357.5098   1426.54602     448.4910     357.5098
   1426.53076     450.2165     359.5581   1426.53076     450.2165     359.5581
   1426.51550     453.1028     361.6129   1426.51550     453.1028     361.6129
   1426.50024     455.5823     362.8446   1426.50024     455.5823     362.8446
   1426.48499     457.6416     364.3742   1426.48499     457.6416     364.3742
   1426.46973     460.7361     366.9427   1426.46973     460.7361     366.9427
   1426.45447     462.2671     368.0806   1426.45447     462.2671     368.0806
   1426.43921     464.8984     370.5662   1426.43921     464.8984     370.5662
   1426.42395     467.3051     371.9308   1426.42395     467.3051     371.9308
   1426.40869     470.2110     373.5716   1426.40869     470.2110     373.5716
   1426.39343     472.2849     375.1606   1426.39343     472.2849     375.1606
   1426.37817     474.0130     377.3125   1426.37817     474.0130     377.3125
   1426.36292     477.2448     378.3665   1426.36292     477.2448     378.3665
   1426.34766     478.6600     380.8079   1426.34766     478.6600     380.8079
   1426.33240     481.6488     382.0661   1426.33240     481.6488     382.0661
   1426.31714     484.5049     384.1437   1426.31714     484.5049     384.1437
   1426.30188     486.3729     385.2434   1426.30188     486.3729     385.2434
   1426.28662     488.2839     387.1519   1426.28662     488.2839     387.1519
   1426.27136     491.1046     388.6647   1426.27136     491.1046     388.6647
   1426.25610     493.0110     390.5123   1426.25610     493.0110     390.5123
   1426.24084     494.9077     392.1227   1426.24084     494.9077     392.1227
   1426.22559     498.3561     393.3658   1426.22559     498.3561     393.3658
   1426.21033     499.3983     395.3792   1426.21033     499.3983     395.3792
   1426.19507     501.5872     396.0720   1426.19507     501.5872     396.0720
   1426.17981     503.4721     398.8102   1426.17981     503.4721     398.8102
   1426.16455     505.5344     400.2155   1426.16455     505.5344     400.2155
   1426.14929     508.1131     401.7719   1426.14929     508.1131     401.7719
   1426.13403     510.0509     403.5247   1426.13403     510.0509     403.5247
   1426.11877     511.5984     404.3836   1426.11877     511.5984     404.3836
   1426.10352     514.2914     406.3859   1426.10352     514.2914     406.3859
   1426.08826     516.6159     408.4662   1426.08826     516.6159     408.4662
   1426.07300     518.2872     408.6075   1426.07300     518.2872     408.6075
   1426.05774     519.4033     410.8278   1426.05774     519.4033     410.8278
   1426.04248     520.7845     411.6770   1426.04248     520.7845     411.6770
   1426.02722     523.0832     412.8546   1426.02722     523.0832     412.8546
   1426.01196     525.7303     414.4465   1426.01196     525.7303     414.4465
   1425.99670     527.9366     415.8466   1425.99670     527.9366     415.8466
   1425.98145     530.4323     418.2078   1425.98145     530.4323     418.2078
   1425.96619     531.2088     419.1381   1425.96619     531.2088     419.1381
   1425.95093     533.2776     419.9851   1425.95093     533.2776     419.9851
   1425.93567     535.3094     421.5538   1425.93567     535.3094     421.5538
   1425.92041     537.3415     422.8637   1425.92041     537.3415     422.8637
   1425.90515     538.3373     424.1372   1425.90515     538.3373     424.1372
   1425.88989     539.8049     425.9927   1425.88989     539.8049     425.9927
   1425.87463     541.7589     427.6430   1425.87463     541.7589     427.6430
   1425.85938     543.4513     428.4450   1425.85938     543.4513     428.4450
   1425.84412     544.8604     429.9170   1425.84412     544.8604     429.9170
   1425.82886     547.3148     430.3937   1425.82886     547.3148     430.3937
   1425.81360     547.6846     432.1982   1425.81360     547.6846     432.1982
   1425.79834     550.3674     433.5493   1425.79834     550.3674     433.5493
   1425.78308     550.9242     434.8020   1425.78308     550.9242     434.8020
   1425.76782     553.2138     435.9668   1425.76782     553.2138     435.9668
   1425.75256     554.7214     437.4429   1425.75256     554.7214     437.4429
   1425.73730     555.8130     438.4320   1425.73730     555.8130     438.4320
   1425.72205     556.7963     439.9508   1425.72205     556.7963     439.9508
   1425.70679     559.9453     440.6206   1425.70679     559.9453     440.6206
   1425.69153     559.4457     442.3891   1425.69153     559.4457     442.3891
   1425.67627     561.2435     443.7170   1425.67627     561.2435     443.7170
   1425.66101     563.0906     444.7877   1425.66101     563.0906     444.7877
   1425.64575     564.0582     445.6323   1425.64575     564.0582     445.6323
   1425.63049     564.9500     446.7405   1425.63049     564.9500     446.7405
   1425.61523     566.0872     448.0994   1425.61523     566.0872     448.0994
   1425.59998     567.5060     449.4431   1425.59998     567.5060     449.4431
   1425.58472     568.6201     449.6974   1425.58472     568.6201     449.6974
   1425.56946     570.5637     450.9909   1425.56946     570.5637     450.9909
   1425.55420     571.3626     452.1938   1425.55420     571.3626     452.1938
   1425.53894     572.1757     453.2977   1425.53894     572.1757     453.2977
   1425.52368     574.2533     454.3028   1425.52368     574.2533     454.3028
   1425.50842     574.5498     454.6935   1425.50842     574.5498     454.6935
   1425.49316     575.7890     456.7123   1425.49316     575.7890     456.7123
   1425.47791     576.8978     457.8559   1425.47791     576.8978     457.8559
   1425.46265     578.8327     457.8189   1425.46265     578.8327     457.8189
   1425.44739     579.0810     458.8809   1425.44739     579.0810     458.8809
   1425.43213     579.4949     460.6294   1425.43213     579.4949     460.6294
   1425.41687     580.8201     461.7924   1425.41687     580.8201     461.7924
   1425.40161     581.7415     462.5575   1425.40161     581.7415     462.5575
   1425.38635     583.0414     463.5070   1425.38635     583.0414     463.5070
   1425.37109     582.8212     464.0296   1425.37109     582.8212     464.0296
   1425.35583     583.4694     465.4784   1425.35583     583.4694     465.4784
   1425.34058     583.4883     465.9367   1425.34058     583.4883     465.9367
   1425.32532     585.6641     467.4391   1425.32532     585.6641     467.4391
   1425.31006     586.4335     468.0736   1425.31006     586.4335     468.0736
   1425.29480     587.1412     468.6712   1425.29480     587.1412     468.6712
   1425.27954     588.2200     470.1675   1425.27954     588.2200     470.1675
   1425.26428     588.7670     470.5163   1425.26428     588.7670     470.5163
   1425.24902     588.0513     471.6709   1425.24902     588.0513     471.6709
   1425.23376     590.0547     473.2024   1425.23376     590.0547     473.2024
   1425.21851     589.9377     473.7433   1425.21851     589.9377     473.7433
   1425.20325     591.2809     474.2592   1425.20325     591.2809     474.2592
   1425.18799     592.3165     475.3050   1425.18799     592.3165     475.3050
   1425.17273     591.7155     475.8749   1425.17273     591.7155     475.8749
   1425.15747     593.3708     476.7032   1425.15747     593.3708     476.7032
   1425.14221     593.5799     477.8729   1425.14221     593.5799     477.8729
   1425.12695     593.6446     478.7632   1425.12695     593.6446     478.7632
   1425.11169     594.6629     479.5699   1425.11169     594.6629     479.5699
   1425.09644     594.5656     480.2873   1425.09644     594.5656     480.2873
   1425.08118     594.6990     480.7556   1425.08118     594.6990     480.7556
   1425.06592     595.1750     481.5692   1425.06592     595.1750     481.5692
   1425.05066     595.7780     483.0034   1425.05066     595.7780     483.0034
   1425.03540     596.5094     482.6675   1425.03540     596.5094     482.6675
   1425.02014     597.1067     483.8926   1425.02014     597.1067     483.8926
   1425.00488     596.3737     484.6002   1425.00488     596.3737     484.6002
   1424.98962     597.7133     485.4218   1424.98962     597.7133     485.4218
   1424.97437     597.0380     485.8192   1424.97437     597.0380     485.8192
   1424.95911     598.5772     487.0921   1424.95911     598.5772     487.0921
   1424.94385     599.7365     488.6574   1424.94385     599.7365     488.6574
   1424.92859     599.0019     488.0602   1424.92859     599.0019     488.0602
   1424.91333     599.6962     489.6167   1424.91333     599.6962     489.6167
   1424.89807     600.5067     489.6287   1424.89807     600.5067     489.6287
   1424.88281     599.4910     490.3081   1424.88281     599.4910     490.3081
   1424.86755     598.9393     491.4399   1424.86755     598.9393     491.4399
   1424.85229     598.8464     492.1652   1424.85229     598.8464     492.1652
   1424.83704     599.9270     492.8997   1424.83704     599.9270     492.8997
   1424.82178     599.7971     493.6746   1424.82178     599.7971     493.6746
   1424.80652     599.8246     493.7809   1424.80652     599.8246     493.7809
   1424.79126     600.1880     494.7402   1424.79126     600.1880     494.7402
   1424.77600     600.7810     496.1653   1424.77600     600.7810     496.1653
   1424.76074     600.7758     496.7931   1424.76074     600.7758     496.7931
   1424.74548     599.3731     496.5293   1424.74548     599.3731     496.5293
   1424.73022     600.5907     496.8574   1424.73022     600.5907     496.8574
   1424.71497     601.0732     498.8041   1424.71497     601.0732     498.8041
   1424.69971     602.2029     499.1282   1424.69971     602.2029     499.1282
   1424.68445     602.0358     499.0414   1424.68445     602.0358     499.0414
   1424.66919     601.7545     499.3270   1424.66919     601.7545     499.3270
   1424.65393     600.9045     500.2966   1424.65393     600.9045     500.2966
   1424.63867     601.6873     501.6254   1424.63867     601.6873     501.6254
   1424.62341     600.7554     501.5407   1424.62341     600.7554     501.5407
   1424.60815     601.8777     501.9335   1424.60815     601.8777     501.9335
   1424.59290     601.5151     502.7530   1424.59290     601.5151     502.7530
   1424.57764     600.1367     502.4160   1424.57764     600.1367     502.4160
   1424.56238     601.0673     504.2881   1424.56238     601.0673     504.2881
   1424.54712     602.5641     505.3935   1424.54712     602.5641     505.3935
   1424.53186     601.2321     505.7767   1424.53186     601.2321     505.7767
   1424.51660     600.4023     505.6538   1424.51660     600.4023     505.6538
   1424.50134     600.8890     506.8128   1424.50134     600.8890     506.8128
   1424.48608     600.0049     507.1717   1424.48608     600.0049     507.1717
   1424.47083     600.8467     507.1662   1424.47083     600.8467     507.1662
   1424.45557     600.3433     507.8842   1424.45557     600.3433     507.8842
   1424.44031     600.4044     508.3775   1424.44031     600.4044     508.3775
   1424.42505     599.3472     508.9929   1424.42505     599.3472     508.9929
   1424.40979     600.2789     509.9029   1424.40979     600.2789     509.9029
   1424.39453     600.5118     510.7640   1424.39453     600.5118     510.7640
   1424.37927     600.0977     510.6209   1424.37927     600.0977     510.6209
   1424.36401     599.1730     511.4403   1424.36401     599.1730     511.4403
   1424.34875     600.2083     512.9592   1424.34875     600.2083     512.9592
   1424.33350     599.6210     512.1600   1424.33350     599.6210     512.1600
   1424.31824     599.0886     513.3906   1424.31824     599.0886     513.3906
   1424.30298     599.1635     513.1527   1424.30298     599.1635     513.1527
   1424.28772     599.1710     513.2524   1424.28772     599.1710     513.2524
   1424.27246     599.5347     514.4874   1424.27246     599.5347     514.4874
   1424.25720     599.1197     515.3561   1424.25720     599.1197     515.3561
   1424.24194     599.0422     515.4745   1424.24194     599.0422     515.4745
   1424.22668     598.3072     516.3739   1424.22668     598.3072     516.3739
   1424.21143     598.5027     515.8342   1424.21143     598.5027     515.8342
   1424.19617     598.7877     516.6034   1424.19617     598.7877     516.6034
   1424.18091     599.0633     517.8170   1424.18091     599.0633     517.8170
   1424.16565     598.3790     517.0120   1424.16565     598.3790     517.0120
   1424.15039     597.7955     517.3102   1424.15039     597.7955     517.3102
   1424.13513     597.5516     518.8525   1424.13513     597.5516     518.8525
   1424.11987     596.5574     518.3141   1424.11987     596.5574     518.3141
   1424.10461     597.7513     518.6536   1424.10461     597.7513     518.6536
   1424.08936     596.6847     520.8466   1424.08936     596.6847     520.8466
   1424.07410     596.2803     520.4796   1424.07410     596.2803     520.4796
   1424.05884     597.1646     520.5164   1424.05884     597.1646     520.5164
   1424.04358     595.6874     521.5560   1424.04358     595.6874     521.5560
   1424.02832     595.4247     521.9364   1424.02832     595.4247     521.9364
   1424.01306     595.5561     522.0228   1424.01306     595.5561     522.0228
   1423.99780     595.1514     522.2213   1423.99780     595.1514     522.2213
   1423.98254     595.7722     521.5790   1423.98254     595.7722     521.5790
   1423.96729     595.2289     522.5776   1423.96729     595.2289     522.5776
   1423.95203     594.5152     524.1827   1423.95203     594.5152     524.1827
   1423.93677     594.3413     523.6986   1423.93677     594.3413     523.6986
   1423.92151     594.5179     524.9986   1423.92151     594.5179     524.9986
   1423.90625     593.7361     524.3235   1423.90625     593.7361     524.3235
   1423.89099     593.7537     525.7381   1423.89099     593.7537     525.7381
   1423.87573     593.1767     525.4033   1423.87573     593.1767     525.4033
   1423.86047     593.5218     524.7955   1423.86047     593.5218     524.7955
   1423.84521     592.8374     525.4248   1423.84521     592.8374     525.4248
   1423.82996     593.8780     527.0620   1423.82996     593.8780     527.0620
   1423.81470     592.9250     527.1664   1423.81470     592.9250     527.1664
   1423.79944     593.2779     526.9886   1423.79944     593.2779     526.9886
   1423.78418     593.0223     527.9669   1423.78418     593.0223     527.9669
   1423.76892     591.0476     527.6872   1423.76892     591.0476     527.6872
   1423.75366     593.2567     527.6005   1423.75366     593.2567     527.6005
   1423.73840     591.7789     528.1679   1423.73840     591.7789     528.1679
   1423.72314     591.2137     528.2382   1423.72314     591.2137     528.2382
   1423.70789     592.3879     528.8615   1423.70789     592.3879     528.8615
   1423.69263     591.6254     529.1155   1423.69263     591.6254     529.1155
   1423.67737     590.2604     529.5850   1423.67737     590.2604     529.5850
   1423.66211     591.1035     528.9341   1423.66211     591.1035     528.9341
   1423.64685     590.8696     529.6491   1423.64685     590.8696     529.6491
   1423.63159     590.3189     530.0680   1423.63159     590.3189     530.0680
   1423.61633     590.1592     530.7866   1423.61633     590.1592     530.7866
   1423.60107     589.8292     530.4077   1423.60107     589.8292     530.4077
   1423.58582     589.3364     530.3055   1423.58582     589.3364     530.3055
   1423.57056     589.4405     530.8860   1423.57056     589.4405     530.8860
   1423.55530     588.9075     530.9435   1423.55530     588.9075     530.9435
   1423.54004     589.3265     531.3145   1423.54004     589.3265     531.3145
   1423.52478     588.7473     531.1539   1423.52478     588.7473     531.1539
   1423.50952     587.9610     531.8559   1423.50952     587.9610     531.8559
   1423.49426     588.1688     530.9310   1423.49426     588.1688     530.9310
   1423.47900     587.5923     531.4595   1423.47900     587.5923     531.4595
   1423.46375     587.3373     531.5536   1423.46375     587.3373     531.5536
   1423.44849     587.9127     531.5118   1423.44849     587.9127     531.5118
   1423.43323     586.7797     531.7584   1423.43323     586.7797     531.7584
   1423.41797     587.7560     532.6319   1423.41797     587.7560     532.6319
   1423.40271     586.5576     532.1196   1423.40271     586.5576     532.1196
   1423.38745     587.2380     532.4188   1423.38745     587.2380     532.4188
   1423.37219     586.4498     533.1126   1423.37219     586.4498     533.1126
   1423.35693     586.4233     532.1384   1423.35693     586.4233     532.1384
   1423.34167     586.7697     532.1411   1423.34167     586.7697     532.1411
   1423.32642     586.1873     530.9653   1423.32642     586.1873     530.9653
   1423.31116     585.9307     531.3716   1423.31116     585.9307     531.3716
   1423.29590     586.4220     532.0066   1423.29590     586.4220     532.0066
   1423.28064     584.3610     531.0873   1423.28064     584.3610     531.0873
   1423.26538     584.1489     532.5134   1423.26538     584.1489     532.5134
   1423.25012     584.4457     531.2369   1423.25012     584.4457     531.2369
   1423.23486     584.2469     532.6011   1423.23486     584.2469     532.6011
   1423.21960     584.4095     532.4525   1423.21960     584.4095     532.4525
   1423.20435     583.9493     531.6691   1423.20435     583.9493     531.6691
   1423.18909     583.8700     530.8577   1423.18909     583.8700     530.8577
   1423.17383     583.0239     531.1686   1423.17383     583.0239     531.1686
   1423.15857     583.8270     531.7253   1423.15857     583.8270     531.7253
   1423.14331     583.9694     530.9294   1423.14331     583.9694     530.9294
   1423.12805     582.7516     530.2636   1423.12805     582.7516     530.2636
   1423.11279     582.2083     530.2789   1423.11279     582.2083     530.2789
   1423.09753     583.8204     530.1882   1423.09753     583.8204     530.1882
   1423.08228     582.4999     531.4546   1423.08228     582.4999     531.4546
   1423.06702     582.3334     530.2605   1423.06702     582.3334     530.2605
   1423.05176     581.7717     529.1902   1423.05176     581.7717     529.1902
   1423.03650     581.9958     528.9481   1423.03650     581.9958     528.9481
   1423.02124     582.0177     530.6400   1423.02124     582.0177     530.6400
   1423.00598     581.3708     528.8886   1423.00598     581.3708     528.8886
   1422.99072     581.6158     528.9337   1422.99072     581.6158     528.9337
   1422.97546     581.1862     528.5332   1422.97546     581.1862     528.5332
   1422.96021     581.1581     528.1128   1422.96021     581.1581     528.1128
   1422.94495     580.8273     527.3287   1422.94495     580.8273     527.3287
   1422.92969     581.0413     527.4700   1422.92969     581.0413     527.4700
   1422.91443     580.7209     526.7399   1422.91443     580.7209     526.7399
   1422.89917     580.6660     525.6968   1422.89917     580.6660     525.6968
   1422.88391     580.2199     526.5131   1422.88391     580.2199     526.5131
   1422.86865     579.6396     525.9699   1422.86865     579.6396     525.9699
   1422.85339     580.6381     525.2930   1422.85339     580.6381     525.2930
   1422.83813     579.2260     524.6462   1422.83813     579.2260     524.6462
   1422.82288     579.6943     523.6537   1422.82288     579.6943     523.6537
   1422.80762     578.8585     523.0365   1422.80762     578.8585     523.0365
   1422.79236     578.8557     523.4914   1422.79236     578.8557     523.4914
   1422.77710     579.2598     523.1168   1422.77710     579.2598     523.1168
   1422.76184     577.9293     521.7634   1422.76184     577.9293     521.7634
   1422.74658     579.6903     520.8481   1422.74658     579.6903     520.8481
   1422.73132     578.3824     520.5109   1422.73132     578.3824     520.5109
   1422.71606     578.8622     520.2964   1422.71606     578.8622     520.2964
   1422.70081     577.9768     520.9089   1422.70081     577.9768     520.9089
   1422.68555     578.6963     519.9563   1422.68555     578.6963     519.9563
   1422.67029     577.2682     518.9976   1422.67029     577.2682     518.9976
   1422.65503     577.2526     518.0251   1422.65503     577.2526     518.0251
   1422.63977     578.9187     517.1490   1422.63977     578.9187     517.1490
   1422.62451     577.0833     516.9087   1422.62451     577.0833     516.9087
   1422.60925     576.6985     516.7484   1422.60925     576.6985     516.7484
   1422.59399     575.8451     516.1727   1422.59399     575.8451     516.1727
   1422.57874     576.2164     515.8227   1422.57874     576.2164     515.8227
   1422.56348     576.6090     513.9982   1422.56348     576.6090     513.9982
   1422.54822     576.7809     512.9164   1422.54822     576.7809     512.9164
   1422.53296     577.2267     512.3787   1422.53296     577.2267     512.3787
   1422.51770     576.3843     511.7137   1422.51770     576.3843     511.7137
   1422.50244     576.2391     510.7234   1422.50244     576.2391     510.7234
   1422.48718     576.0829     510.4585   1422.48718     576.0829     510.4585
   1422.47192     575.4706     510.2296   1422.47192     575.4706     510.2296
   1422.45667     576.0594     508.9424   1422.45667     576.0594     508.9424
   1422.44141     575.4913     508.4739   1422.44141     575.4913     508.4739
   1422.42615     575.4088     507.2587   1422.42615     575.4088     507.2587
   1422.41089     574.3868     506.8034   1422.41089     574.3868     506.8034
   1422.39563     574.7283     506.3503   1422.39563     574.7283     506.3503
   1422.38037     575.0400     505.2666   1422.38037     575.0400     505.2666
   1422.36511     574.6554     503.9174   1422.36511     574.6554     503.9174
   1422.34985     574.6617     503.1410   1422.34985     574.6617     503.1410
   1422.33459     573.0143     501.4122   1422.33459     573.0143     501.4122
   1422.31934     574.2506     501.8778   1422.31934     574.2506     501.8778
   1422.30408     573.7564     500.5806   1422.30408     573.7564     500.5806
   1422.28882     573.4225     500.2337   1422.28882     573.4225     500.2337
   1422.27356     574.1811     498.8026   1422.27356     574.1811     498.8026
   1422.25830     573.1926     498.4713   1422.25830     573.1926     498.4713
   1422.24304     572.4266     496.2652   1422.24304     572.4266     496.2652
   1422.22778     573.2289     495.9039   1422.22778     573.2289     495.9039
   1422.21252     573.3253     495.5039   1422.21252     573.3253     495.5039
   1422.19727     572.8149     495.1690   1422.19727     572.8149     495.1690
   1422.18201     571.6597     493.4140   1422.18201     571.6597     493.4140
   1422.16675     573.2219     492.1269   1422.16675     573.2219     492.1269
   1422.15149     572.3186     490.3273   1422.15149     572.3186     490.3273
   1422.13623     572.4652     490.1708   1422.13623     572.4652     490.1708
   1422.12097     572.4734     487.7296   1422.12097     572.4734     487.7296
   1422.10571     570.8619     489.0406   1422.10571     570.8619     489.0406
   1422.09045     571.9219     486.5644   1422.09045     571.9219     486.5644
   1422.07520     571.3450     486.0875   1422.07520     571.3450     486.0875
   1422.05994     571.9672     485.2574   1422.05994     571.9672     485.2574
   1422.04468     571.7780     483.8481   1422.04468     571.7780     483.8481
   1422.02942     571.0367     483.3412   1422.02942     571.0367     483.3412
   1422.01416     570.5020     481.9030   1422.01416     570.5020     481.9030
   1421.99890     570.2325     480.8490   1421.99890     570.2325     480.8490
   1421.98364     570.2482     479.9118   1421.98364     570.2482     479.9118
   1421.96838     570.2951     478.1926   1421.96838     570.2951     478.1926
   1421.95312     570.5229     477.3608   1421.95312     570.5229     477.3608
   1421.93787     569.9942     476.4573   1421.93787     569.9942     476.4573
   1421.92261     570.2322     475.9462   1421.92261     570.2322     475.9462
   1421.90735     569.6345     474.5300   1421.90735     569.6345     474.5300
   1421.89209     569.6803     473.4191   1421.89209     569.6803     473.4191
   1421.87683     569.2869     472.6872   1421.87683     569.2869     472.6872
   1421.86157     569.9724     471.2536   1421.86157     569.9724     471.2536
   1421.84631     568.2670     470.0779   1421.84631     568.2670     470.0779
   1421.83105     569.3240     469.4723   1421.83105     569.3240     469.4723
   1421.81580     569.6110     467.6601   1421.81580     569.6110     467.6601
   1421.80054     568.1161     467.1715   1421.80054     568.1161     467.1715
   1421.78528     568.1481     465.3686   1421.78528     568.1481     465.3686
   1421.77002     567.6198     464.2830   1421.77002     567.6198     464.2830
   1421.75476     567.5967     463.2163   1421.75476     567.5967     463.2163
   1421.73950     568.5176     461.9596   1421.73950     568.5176     461.9596
   1421.72424     567.7214     460.6230   1421.72424     567.7214     460.6230
   1421.70898     566.5729     459.4996   1421.70898     566.5729     459.4996
   1421.69373     567.0538     458.0406   1421.69373     567.0538     458.0406
   1421.67847     566.5253     456.9390   1421.67847     566.5253     456.9390
   1421.66321     566.3885     455.8329   1421.66321     566.3885     455.8329
   1421.64795     567.3023     454.7538   1421.64795     567.3023     454.7538
   1421.63269     567.1075     453.2094   1421.63269     567.1075     453.2094
   1421.61743     566.5164     452.0383   1421.61743     566.5164     452.0383
   1421.60217     566.2946     452.1696   1421.60217     566.2946     452.1696
   1421.58691     566.0882     450.4190   1421.58691     566.0882     450.4190
   1421.57166     566.2299     449.7244   1421.57166     566.2299     449.7244
   1421.55640     565.8079     447.7328   1421.55640     565.8079     447.7328
   1421.54114     566.3041     446.9975   1421.54114     566.3041     446.9975
   1421.52588     565.6349     445.5873   1421.52588     565.6349     445.5873
   1421.51062     565.4260     444.5818   1421.51062     565.4260     444.5818
   1421.49536     565.1194     443.7753   1421.49536     565.1194     443.7753
   1421.48010     564.9451     442.2224   1421.48010     564.9451     442.2224
   1421.46484     565.0032     441.3034   1421.46484     565.0032     441.3034
   1421.44958     565.6963     440.3096   1421.44958     565.6963     440.3096
   1421.43433     564.7435     438.7534   1421.43433     564.7435     438.7534
   1421.41907     564.7630     437.2833   1421.41907     564.7630     437.2833
   1421.40381     564.3979     436.7866   1421.40381     564.3979     436.7866
   1421.38855     564.1015     435.3343   1421.38855     564.1015     435.3343
   1421.37329     564.3934     434.4662   1421.37329     564.3934     434.4662
   1421.35803     563.2187     433.6564   1421.35803     563.2187     433.6564
   1421.34277     564.5660     432.4299   1421.34277     564.5660     432.4299
   1421.32751     563.7660     431.3135   1421.32751     563.7660     431.3135
   1421.31226     563.5780     430.2033   1421.31226     563.5780     430.2033
   1421.29700     563.3993     429.0734   1421.29700     563.3993     429.0734
   1421.28174     564.3725     428.1091   1421.28174     564.3725     428.1091
   1421.26648     563.5929     427.2040   1421.26648     563.5929     427.2040
   1421.25122     564.9333     426.9737   1421.25122     564.9333     426.9737
   1421.23596     564.0483     425.4041   1421.23596     564.0483     425.4041
   1421.22070     566.0759     425.0149   1421.22070     566.0759     425.0149
   1421.20544     566.2897     424.5530   1421.20544     566.2897     424.5530
   1421.19019     568.2594     424.7343   1421.19019     568.2594     424.7343
   1421.17493     569.9215     424.5957   1421.17493     569.9215     424.5957
   1421.15967     573.8205     426.5181   1421.15967     573.8205     426.5181
   1421.14441     580.0142     430.2884   1421.14441     580.0142     430.2884
   1421.12915     589.2546     435.6281   1421.12915     589.2546     435.6281
   1421.11389     597.9481     441.4603   1421.11389     597.9481     441.4603
   1421.09863     610.6630     449.8577   1421.09863     610.6630     449.8577
   1421.08337     630.8205     463.4617   1421.08337     630.8205     463.4617
   1421.06812     670.5847     489.7069   1421.06812     670.5847     489.7069
   1421.05286     732.8190     532.7708   1421.05286     732.8190     532.7708
   1421.03760     776.6994     562.0612   1421.03760     776.6994     562.0612
   1421.02234     820.2623     591.7989   1421.02234     820.2623     591.7989
   1421.00708     840.1786     604.9131   1421.00708     840.1786     604.9131
   1420.99182     799.9266     575.1745   1420.99182     799.9266     575.1745
   1420.97656     762.3094     546.9085   1420.97656     762.3094     546.9085
   1420.96130     741.8873     531.6993   1420.96130     741.8873     531.6993
   1420.94604     747.5623     533.6324   1420.94604     747.5623     533.6324
   1420.93079     769.2756     549.9086   1420.93079     769.2756     549.9086
   1420.91553     786.9001     560.2477   1420.91553     786.9001     560.2477
   1420.90027     820.1961     583.3657   1420.90027     820.1961     583.3657
   1420.88501     894.4423     634.3667   1420.88501     894.4423     634.3667
   1420.86975    1023.0988     720.3212   1420.86975    1023.0988     720.3212
   1420.85449    1094.6150     767.0619   1420.85449    1094.6150     767.0619
   1420.83923    1032.7804     721.8715   1420.83923    1032.7804     721.8715
   1420.82397     968.1680     675.4086   1420.82397     968.1680     675.4086
   1420.80872    1010.1536     702.0505   1420.80872    1010.1536     702.0505
   1420.79346    1266.8412     875.3354   1420.79346    1266.8412     875.3354
   1420.77820    1556.4569    1070.8875   1420.77820    1556.4569    1070.8875
   1420.76294    1625.1897    1114.1669   1420.76294    1625.1897    1114.1669
   1420.74768    1691.5745    1156.5519   1420.74768    1691.5745    1156.5519
   1420.73242    1637.2443    1115.4202   1420.73242    1637.2443    1115.4202
   1420.71716    1586.5295    1079.5245   1420.71716    1586.5295    1079.5245
   1420.70190    1434.1515     977.1898   1420.70190    1434.1515     977.1898
   1420.68665    1189.7682     809.7864   1420.68665    1189.7682     809.7864
   1420.67139     964.4605     659.4161   1420.67139     964.4605     659.4161
   1420.65613     871.7418     595.1519   1420.65613     871.7418     595.1519
   1420.64087     886.0814     603.1292   1420.64087     886.0814     603.1292
   1420.62561    1005.4564     679.7056   1420.62561    1005.4564     679.7056
   1420.61035    1202.4205     810.1075   1420.61035    1202.4205     810.1075
   1420.59509    1397.9381     937.7519   1420.59509    1397.9381     937.7519
   1420.57983    1584.1627    1061.2014   1420.57983    1584.1627    1061.2014
   1420.56458    1719.7441    1150.7675   1420.56458    1719.7441    1150.7675
   1420.54932    1700.6029    1132.4882   1420.54932    1700.6029    1132.4882
   1420.53406    1666.7401    1107.4656   1420.53406    1666.7401    1107.4656
   1420.51880    1631.6882    1078.7139   1420.51880    1631.6882    1078.7139
   1420.50354    1288.5327     855.4583   1420.50354    1288.5327     855.4583
   1420.48828     974.1992     645.3890   1420.48828     974.1992     645.3890
   1420.47302     747.1536     497.5707   1420.47302     747.1536     497.5707
   1420.45776     635.6320     425.1391   1420.45776     635.6320     425.1391
   1420.44250     595.2695     398.7303   1420.44250     595.2695     398.7303
   1420.42725     578.7008     388.0961   1420.42725     578.7008     388.0961
   1420.41199     572.3302     382.0743   1420.41199     572.3302     382.0743
   1420.39673     568.2876     378.4994   1420.39673     568.2876     378.4994
   1420.38147     565.7128     375.9464   1420.38147     565.7128     375.9464
   1420.36621     563.7232     374.7175   1420.36621     563.7232     374.7175
   1420.35095     562.6005     373.0376   1420.35095     562.6005     373.0376
   1420.33569     562.5790     371.7535   1420.33569     562.5790     371.7535
   1420.32043     562.2264     370.9706   1420.32043     562.2264     370.9706
   1420.30518     561.7448     369.4363   1420.30518     561.7448     369.4363
   1420.28992     560.9329     369.6049   1420.28992     560.9329     369.6049
   1420.27466     560.5862     368.3744   1420.27466     560.5862     368.3744
   1420.25940     560.3842     367.2506   1420.25940     560.3842     367.2506
   1420.24414     561.1278     366.6202   1420.24414     561.1278     366.6202
   1420.22888     560.7732     365.3235   1420.22888     560.7732     365.3235
   1420.21362     559.5472     364.7231   1420.21362     559.5472     364.7231
   1420.19836     558.4518     362.9052   1420.19836     558.4518     362.9052
   1420.18311     558.0354     361.7771   1420.18311     558.0354     361.7771
   1420.16785     557.2629     360.7853   1420.16785     557.2629     360.7853
   1420.15259     555.7302     360.1800   1420.15259     555.7302     360.1800
   1420.13733     555.0519     358.7280   1420.13733     555.0519     358.7280
   1420.12207     554.6634     358.2938   1420.12207     554.6634     358.2938
   1420.10681     555.4722     358.1448   1420.10681     555.4722     358.1448
   1420.09155     555.6514     356.8939   1420.09155     555.6514     356.8939
   1420.07629     554.0905     356.1486   1420.07629     554.0905     356.1486
   1420.06104     554.3895     355.3071   1420.06104     554.3895     355.3071
   1420.04578     554.3750     354.5611   1420.04578     554.3750     354.5611
   1420.03052     554.6068     354.6903   1420.03052     554.6068     354.6903
   1420.01526     555.1748     354.4841   1420.01526     555.1748     354.4841
   1420.00000     555.8231     354.6205   1420.00000     555.8231     354.6205
   1419.98474     556.4709     354.7568   1419.98474     556.4709     354.7568
   1419.96948     556.6765     352.6928   1419.96948     556.6765     352.6928
   1419.95422     553.6131     351.6809   1419.95422     553.6131     351.6809
   1419.93896     554.6726     350.7519   1419.93896     554.6726     350.7519
   1419.92371     553.6530     350.3256   1419.92371     553.6530     350.3256
   1419.90845     554.3383     349.4025   1419.90845     554.3383     349.4025
   1419.89319     553.7599     348.4383   1419.89319     553.7599     348.4383
   1419.87793     554.3141     348.6745   1419.87793     554.3141     348.6745
   1419.86267     554.2490     348.4991   1419.86267     554.2490     348.4991
   1419.84741     555.0774     348.5607   1419.84741     555.0774     348.5607
   1419.83215     554.1915     347.5480   1419.83215     554.1915     347.5480
   1419.81689     554.4493     347.0953   1419.81689     554.4493     347.0953
   1419.80164     554.6710     347.6257   1419.80164     554.6710     347.6257
   1419.78638     555.5961     346.5165   1419.78638     555.5961     346.5165
   1419.77112     555.6663     346.2681   1419.77112     555.6663     346.2681
   1419.75586     555.6401     346.8733   1419.75586     555.6401     346.8733
   1419.74060     556.3703     346.0148   1419.74060     556.3703     346.0148
   1419.72534     556.1130     345.5821   1419.72534     556.1130     345.5821
   1419.71008     556.9084     345.4998   1419.71008     556.9084     345.4998
   1419.69482     556.2570     345.1593   1419.69482     556.2570     345.1593
   1419.67957     557.0707     344.6484   1419.67957     557.0707     344.6484
   1419.66431     557.5267     345.4590   1419.66431     557.5267     345.4590
   1419.64905     557.7283     344.5249   1419.64905     557.7283     344.5249
   1419.63379     558.1064     344.8203   1419.63379     558.1064     344.8203
   1419.61853     557.2144     343.9186   1419.61853     557.2144     343.9186
   1419.60327     558.9484     344.2559   1419.60327     558.9484     344.2559
   1419.58801     559.7079     344.2446   1419.58801     559.7079     344.2446
   1419.57275     559.0948     343.6534   1419.57275     559.0948     343.6534
   1419.55750     558.6262     343.9643   1419.55750     558.6262     343.9643
   1419.54224     559.7844     343.3209   1419.54224     559.7844     343.3209
   1419.52698     559.7263     343.2318   1419.52698     559.7263     343.2318
   1419.51172     560.1907     343.1548   1419.51172     560.1907     343.1548
   1419.49646     560.5234     343.1742   1419.49646     560.5234     343.1742
   1419.48120     560.9280     342.6019   1419.48120     560.9280     342.6019
   1419.46594     560.6990     342.5241   1419.46594     560.6990     342.5241
   1419.45068     561.0144     342.2723   1419.45068     561.0144     342.2723
   1419.43542     561.5435     342.7603   1419.43542     561.5435     342.7603
   1419.42017     561.4269     342.2047   1419.42017     561.4269     342.2047
   1419.40491     562.2492     342.7880   1419.40491     562.2492     342.7880
   1419.38965     562.6284     342.5395   1419.38965     562.6284     342.5395
   1419.37439     562.9997     342.8430   1419.37439     562.9997     342.8430
   1419.35913     563.0979     342.3691   1419.35913     563.0979     342.3691
   1419.34387     563.5662     341.9727   1419.34387     563.5662     341.9727
   1419.32861     563.4126     342.3112   1419.32861     563.4126     342.3112
   1419.31335     565.7637     342.7226   1419.31335     565.7637     342.7226
   1419.29810     563.9711     342.3821   1419.29810     563.9711     342.3821
   1419.28284     565.0489     343.0104   1419.28284     565.0489     343.0104
   1419.26758     566.0739     343.3455   1419.26758     566.0739     343.3455
   1419.25232     565.6561     342.5710   1419.25232     565.6561     342.5710
   1419.23706     565.6879     342.9265   1419.23706     565.6879     342.9265
   1419.22180     566.4758     343.1287   1419.22180     566.4758     343.1287
   1419.20654     567.3415     342.9671   1419.20654     567.3415     342.9671
   1419.19128     567.8901     342.9103   1419.19128     567.8901     342.9103
   1419.17603     568.3530     343.0261   1419.17603     568.3530     343.0261
   1419.16077     568.2396     343.3556   1419.16077     568.2396     343.3556
   1419.14551     568.7749     342.9266   1419.14551     568.7749     342.9266
   1419.13025     568.6924     343.5793   1419.13025     568.6924     343.5793
   1419.11499     568.8523     343.6821   1419.11499     568.8523     343.6821
   1419.09973     570.1681     343.6224   1419.09973     570.1681     343.6224
   1419.08447     571.0138     343.8929   1419.08447     571.0138     343.8929
   1419.06921     571.4487     344.4139   1419.06921     571.4487     344.4139
   1419.05396     571.8736     344.0773   1419.05396     571.8736     344.0773
   1419.03870     571.3754     344.7408   1419.03870     571.3754     344.7408
   1419.02344     572.2802     344.8724   1419.02344     572.2802     344.8724
   1419.00818     573.3792     345.1546   1419.00818     573.3792     345.1546
   1418.99292     573.6098     345.3745   1418.99292     573.6098     345.3745
   1418.97766     573.7241     345.3524   1418.97766     573.7241     345.3524
   1418.96240     575.4586     345.3701   1418.96240     575.4586     345.3701
   1418.94714     574.7853     346.1443   1418.94714     574.7853     346.1443
   1418.93188     575.4183     346.1768   1418.93188     575.4183     346.1768
   1418.91663     577.0842     346.7597   1418.91663     577.0842     346.7597
   1418.90137     575.5428     346.9801   1418.90137     575.5428     346.9801
   1418.88611     577.2130     347.1101   1418.88611     577.2130     347.1101
   1418.87085     577.3945     346.8530   1418.87085     577.3945     346.8530
   1418.85559     577.6910     347.4893   1418.85559     577.6910     347.4893
   1418.84033     577.6434     347.7502   1418.84033     577.6434     347.7502
   1418.82507     578.7574     348.3575   1418.82507     578.7574     348.3575
   1418.80981     579.6145     348.6891   1418.80981     579.6145     348.6891
   1418.79456     579.4166     348.5549   1418.79456     579.4166     348.5549
   1418.77930     581.2044     349.5462   1418.77930     581.2044     349.5462
   1418.76404     579.4720     349.6471   1418.76404     579.4720     349.6471
   1418.74878     582.2415     349.8372   1418.74878     582.2415     349.8372
   1418.73352     582.4910     351.2849   1418.73352     582.4910     351.2849
   1418.71826     582.0462     351.0579   1418.71826     582.0462     351.0579
   1418.70300     583.6381     351.3147   1418.70300     583.6381     351.3147
   1418.68774     583.4840     351.4462   1418.68774     583.4840     351.4462
   1418.67249     584.3632     352.4710   1418.67249     584.3632     352.4710
   1418.65723     586.4594     352.6913   1418.65723     586.4594     352.6913
   1418.64197     585.4940     352.7903   1418.64197     585.4940     352.7903
   1418.62671     586.3503     353.5585   1418.62671     586.3503     353.5585
   1418.61145     586.6632     353.8187   1418.61145     586.6632     353.8187
   1418.59619     588.2966     353.7897   1418.59619     588.2966     353.7897
   1418.58093     588.1249     354.7476   1418.58093     588.1249     354.7476
   1418.56567     589.1429     355.4349   1418.56567     589.1429     355.4349
   1418.55042     588.9752     355.7868   1418.55042     588.9752     355.7868
   1418.53516     590.5780     356.2561   1418.53516     590.5780     356.2561
   1418.51990     590.2408     356.8807   1418.51990     590.2408     356.8807
   1418.50464     591.5391     357.1793   1418.50464     591.5391     357.1793
   1418.48938     592.6328     357.6647   1418.48938     592.6328     357.6647
   1418.47412     592.5826     358.2153   1418.47412     592.5826     358.2153
   1418.45886     594.6564     358.3799   1418.45886     594.6564     358.3799
   1418.44360     594.2841     359.2669   1418.44360     594.2841     359.2669
   1418.42834     595.0465     359.5287   1418.42834     595.0465     359.5287
   1418.41309     595.0449     360.1682   1418.41309     595.0449     360.1682
   1418.39783     595.5850     361.0972   1418.39783     595.5850     361.0972
   1418.38257     596.3656     361.6097   1418.38257     596.3656     361.6097
   1418.36731     597.0240     361.6663   1418.36731     597.0240     361.6663
   1418.35205     597.6097     362.9473   1418.35205     597.6097     362.9473
   1418.33679     598.9587     363.2556   1418.33679     598.9587     363.2556
   1418.32153     598.9833     363.6550   1418.32153     598.9833     363.6550
   1418.30627     599.7408     364.9474   1418.30627     599.7408     364.9474
   1418.29102     601.0938     364.6820   1418.29102     601.0938     364.6820
   1418.27576     601.6033     364.9132   1418.27576     601.6033     364.9132
   1418.26050     602.3856     366.1199   1418.26050     602.3856     366.1199
   1418.24524     603.1860     366.6519   1418.24524     603.1860     366.6519
   1418.22998     603.6585     367.2907   1418.22998     603.6585     367.2907
   1418.21472     604.6592     368.3300   1418.21472     604.6592     368.3300
   1418.19946     604.8516     368.6512   1418.19946     604.8516     368.6512
   1418.18420     606.2407     369.3567   1418.18420     606.2407     369.3567
   1418.16895     606.0507     370.0266   1418.16895     606.0507     370.0266
   1418.15369     607.3965     370.7907   1418.15369     607.3965     370.7907
   1418.13843     608.2213     371.5575   1418.13843     608.2213     371.5575
   1418.12317     608.4274     372.1937   1418.12317     608.4274     372.1937
   1418.10791     608.9145     372.3163   1418.10791     608.9145     372.3163
   1418.09265     610.2137     373.6886   1418.09265     610.2137     373.6886
   1418.07739     610.2596     374.3976   1418.07739     610.2596     374.3976
   1418.06213     611.5127     375.0493   1418.06213     611.5127     375.0493
   1418.04688     611.5254     375.4526   1418.04688     611.5254     375.4526
   1418.03162     613.1007     376.3283   1418.03162     613.1007     376.3283
   1418.01636     613.6321     377.2720   1418.01636     613.6321     377.2720
   1418.00110     614.6359     377.7036   1418.00110     614.6359     377.7036
   1417.98584     615.5667     378.4676   1417.98584     615.5667     378.4676
   1417.97058     615.7882     378.9872   1417.97058     615.7882     378.9872
   1417.95532     616.5416     379.4802   1417.95532     616.5416     379.4802
   1417.94006     617.3282     380.5833   1417.94006     617.3282     380.5833
   1417.92480     618.5462     380.4299   1417.92480     618.5462     380.4299
   1417.90955     619.9370     382.1429   1417.90955     619.9370     382.1429
   1417.89429     620.8304     381.9338   1417.89429     620.8304     381.9338
   1417.87903     620.5065     383.1490   1417.87903     620.5065     383.1490
   1417.86377     621.2532     384.1260   1417.86377     621.2532     384.1260
   1417.84851     621.8175     384.7723   1417.84851     621.8175     384.7723
   1417.83325     624.2178     385.6118   1417.83325     624.2178     385.6118
   1417.81799     623.3528     386.0865   1417.81799     623.3528     386.0865
   1417.80273     623.9146     386.5140   1417.80273     623.9146     386.5140
   1417.78748     624.9037     387.4224   1417.78748     624.9037     387.4224
   1417.77222     626.4587     387.9103   1417.77222     626.4587     387.9103
   1417.75696     627.5984     389.2643   1417.75696     627.5984     389.2643
   1417.74170     627.0248     389.5256   1417.74170     627.0248     389.5256
   1417.72644     628.2883     390.7411   1417.72644     628.2883     390.7411
   1417.71118     629.5986     391.0103   1417.71118     629.5986     391.0103
   1417.69592     629.9583     392.5414   1417.69592     629.9583     392.5414
   1417.68066     629.8588     393.1022   1417.68066     629.8588     393.1022
   1417.66541     630.7344     393.4170   1417.66541     630.7344     393.4170
   1417.65015     632.3987     395.3383   1417.65015     632.3987     395.3383
   1417.63489     632.5269     394.8109   1417.63489     632.5269     394.8109
   1417.61963     634.0933     396.2147   1417.61963     634.0933     396.2147
   1417.60437     633.3448     397.0167   1417.60437     633.3448     397.0167
   1417.58911     634.2291     398.1061   1417.58911     634.2291     398.1061
   1417.57385     636.0450     398.1386   1417.57385     636.0450     398.1386
   1417.55859     635.4271     399.2537   1417.55859     635.4271     399.2537
   1417.54333     637.8949     400.1031   1417.54333     637.8949     400.1031
   1417.52808     637.3624     400.4106   1417.52808     637.3624     400.4106
   1417.51282     638.1554     401.6990   1417.51282     638.1554     401.6990
   1417.49756     639.0870     401.7003   1417.49756     639.0870     401.7003
   1417.48230     638.9420     402.2209   1417.48230     638.9420     402.2209
   1417.46704     639.2670     403.4948   1417.46704     639.2670     403.4948
   1417.45178     640.6683     403.6671   1417.45178     640.6683     403.6671
   1417.43652     642.0369     404.6418   1417.43652     642.0369     404.6418
   1417.42126     642.0647     405.7892   1417.42126     642.0647     405.7892
   1417.40601     641.8282     406.7747   1417.40601     641.8282     406.7747
   1417.39075     643.7977     407.2102   1417.39075     643.7977     407.2102
   1417.37549     645.2928     407.7370   1417.37549     645.2928     407.7370
   1417.36023     644.4844     408.2457   1417.36023     644.4844     408.2457
   1417.34497     643.9063     409.3027   1417.34497     643.9063     409.3027
   1417.32971     647.0541     410.1056   1417.32971     647.0541     410.1056
   1417.31445     646.5834     410.7060   1417.31445     646.5834     410.7060
   1417.29919     647.2208     411.4864   1417.29919     647.2208     411.4864
   1417.28394     648.0001     411.4211   1417.28394     648.0001     411.4211
   1417.26868     648.8210     412.5717   1417.26868     648.8210     412.5717
   1417.25342     648.7710     412.7732   1417.25342     648.7710     412.7732
   1417.23816     649.1689     413.6226   1417.23816     649.1689     413.6226
   1417.22290     651.5464     414.9637   1417.22290     651.5464     414.9637
   1417.20764     651.5649     415.0478   1417.20764     651.5649     415.0478
   1417.19238     651.4005     414.9880   1417.19238     651.4005     414.9880
   1417.17712     650.8185     416.3526   1417.17712     650.8185     416.3526
   1417.16187     651.5436     417.1938   1417.16187     651.5436     417.1938
   1417.14661     652.8640     417.9795   1417.14661     652.8640     417.9795
   1417.13135     653.4067     417.7986   1417.13135     653.4067     417.7986
   1417.11609     653.2742     418.0625   1417.11609     653.2742     418.0625
   1417.10083     654.0313     419.0386   1417.10083     654.0313     419.0386
   1417.08557     654.1933     419.5946   1417.08557     654.1933     419.5946
   1417.07031     654.9916     419.8832   1417.07031     654.9916     419.8832
   1417.05505     656.2817     420.2448   1417.05505     656.2817     420.2448
   1417.03979     656.1301     421.3760   1417.03979     656.1301     421.3760
   1417.02454     655.8171     420.9392   1417.02454     655.8171     420.9392
   1417.00928     657.2107     422.0256   1417.00928     657.2107     422.0256
   1416.99402     657.1366     421.8368   1416.99402     657.1366     421.8368
   1416.97876     657.0650     423.2823   1416.97876     657.0650     423.2823
   1416.96350     658.8408     424.1152   1416.96350     658.8408     424.1152
   1416.94824     659.1821     424.2351   1416.94824     659.1821     424.2351
   1416.93298     659.4656     424.3131   1416.93298     659.4656     424.3131
   1416.91772     660.1016     424.8912   1416.91772     660.1016     424.8912
   1416.90247     659.4507     425.7545   1416.90247     659.4507     425.7545
   1416.88721     660.5150     425.4216   1416.88721     660.5150     425.4216
   1416.87195     660.1924     425.4049   1416.87195     660.1924     425.4049
   1416.85669     659.9213     426.6049   1416.85669     659.9213     426.6049
   1416.84143     660.7900     426.3685   1416.84143     660.7900     426.3685
   1416.82617     659.7794     426.7938   1416.82617     659.7794     426.7938
   1416.81091     660.9802     426.7862   1416.81091     660.9802     426.7862
   1416.79565     661.7679     427.4170   1416.79565     661.7679     427.4170
   1416.78040     660.8458     427.1446   1416.78040     660.8458     427.1446
   1416.76514     661.9349     427.8052   1416.76514     661.9349     427.8052
   1416.74988     662.1904     427.7895   1416.74988     662.1904     427.7895
   1416.73462     662.3740     428.5740   1416.73462     662.3740     428.5740
   1416.71936     663.4911     429.1433   1416.71936     663.4911     429.1433
   1416.70410     662.8666     428.3272   1416.70410     662.8666     428.3272
   1416.68884     662.6536     429.4777   1416.68884     662.6536     429.4777
   1416.67358     663.4961     429.1289   1416.67358     663.4961     429.1289
   1416.65833     661.2940     429.5736   1416.65833     661.2940     429.5736
   1416.64307     663.3707     428.7756   1416.64307     663.3707     428.7756
   1416.62781     662.5406     428.8124   1416.62781     662.5406     428.8124
   1416.61255     662.7748     429.5909   1416.61255     662.7748     429.5909
   1416.59729     663.7206     429.3680   1416.59729     663.7206     429.3680
   1416.58203     663.3202     429.3419   1416.58203     663.3202     429.3419
   1416.56677     663.2888     429.7603   1416.56677     663.2888     429.7603
   1416.55151     662.3950     430.2051   1416.55151     662.3950     430.2051
   1416.53625     663.0090     429.8897   1416.53625     663.0090     429.8897
   1416.52100     662.9587     429.6700   1416.52100     662.9587     429.6700
   1416.50574     663.5206     429.9153   1416.50574     663.5206     429.9153
   1416.49048     662.8532     430.4014   1416.49048     662.8532     430.4014
   1416.47522     663.1985     429.6425   1416.47522     663.1985     429.6425
   1416.45996     662.7338     429.2853   1416.45996     662.7338     429.2853
   1416.44470     662.9037     429.9844   1416.44470     662.9037     429.9844
   1416.42944     662.7709     429.8584   1416.42944     662.7709     429.8584
   1416.41418     662.6374     429.4485   1416.41418     662.6374     429.4485
   1416.39893     664.1207     429.6413   1416.39893     664.1207     429.6413
   1416.38367     663.1345     428.8619   1416.38367     663.1345     428.8619
   1416.36841     661.7827     429.1903   1416.36841     661.7827     429.1903
   1416.35315     662.0113     428.5660   1416.35315     662.0113     428.5660
   1416.33789     662.3375     428.7651   1416.33789     662.3375     428.7651
   1416.32263     661.7843     429.2231   1416.32263     661.7843     429.2231
   1416.30737     662.0240     427.2923   1416.30737     662.0240     427.2923
   1416.29211     660.8613     427.6103   1416.29211     660.8613     427.6103
   1416.27686     661.6876     427.5693   1416.27686     661.6876     427.5693
   1416.26160     660.9233     427.4130   1416.26160     660.9233     427.4130
   1416.24634     661.5726     427.3838   1416.24634     661.5726     427.3838
   1416.23108     660.2825     427.1708   1416.23108     660.2825     427.1708
   1416.21582     659.7480     427.2230   1416.21582     659.7480     427.2230
   1416.20056     659.5582     427.0948   1416.20056     659.5582     427.0948
   1416.18530     659.5103     425.3744   1416.18530     659.5103     425.3744
   1416.17004     659.6495     425.9527   1416.17004     659.6495     425.9527
   1416.15479     658.4454     425.3092   1416.15479     658.4454     425.3092
   1416.13953     658.5494     425.5478   1416.13953     658.5494     425.5478
   1416.12427     659.1874     424.6028   1416.12427     659.1874     424.6028
   1416.10901     657.5453     424.3786   1416.10901     657.5453     424.3786
   1416.09375     657.8875     424.1317   1416.09375     657.8875     424.1317
   1416.07849     656.7062     423.8084   1416.07849     656.7062     423.8084
   1416.06323     656.2111     424.0550   1416.06323     656.2111     424.0550
   1416.04797     654.7274     423.0311   1416.04797     654.7274     423.0311
   1416.03271     656.4131     422.2072   1416.03271     656.4131     422.2072
   1416.01746     655.4830     422.4448   1416.01746     655.4830     422.4448
   1416.00220     655.4423     421.8866   1416.00220     655.4423     421.8866
   1415.98694     655.0508     421.7670   1415.98694     655.0508     421.7670
   1415.97168     654.1063     421.0523   1415.97168     654.1063     421.0523
   1415.95642     652.3203     420.6227   1415.95642     652.3203     420.6227
   1415.94116     651.6415     420.4044   1415.94116     651.6415     420.4044
   1415.92590     652.7505     420.3714   1415.92590     652.7505     420.3714
   1415.91064     652.2269     419.6361   1415.91064     652.2269     419.6361
   1415.89539     651.8532     419.6064   1415.89539     651.8532     419.6064
   1415.88013     650.6052     419.4296   1415.88013     650.6052     419.4296
   1415.86487     649.4091     418.5312   1415.86487     649.4091     418.5312
   1415.84961     650.9614     418.0667   1415.84961     650.9614     418.0667
   1415.83435     648.5468     417.3374   1415.83435     648.5468     417.3374
   1415.81909     648.1340     417.3813   1415.81909     648.1340     417.3813
   1415.80383     648.4843     416.5781   1415.80383     648.4843     416.5781
   1415.78857     647.6098     415.9132   1415.78857     647.6098     415.9132
   1415.77332     647.1508     416.0079   1415.77332     647.1508     416.0079
   1415.75806     646.5402     415.3503   1415.75806     646.5402     415.3503
   1415.74280     645.7903     415.2495   1415.74280     645.7903     415.2495
   1415.72754     644.8901     414.6544   1415.72754     644.8901     414.6544
   1415.71228     644.7557     414.3770   1415.71228     644.7557     414.3770
   1415.69702     643.5245     413.2755   1415.69702     643.5245     413.2755
   1415.68176     642.5262     413.5772   1415.68176     642.5262     413.5772
   1415.66650     642.2268     412.8591   1415.66650     642.2268     412.8591
   1415.65125     641.5691     412.3108   1415.65125     641.5691     412.3108
   1415.63599     640.7236     412.4263   1415.63599     640.7236     412.4263
   1415.62073     640.6323     411.2939   1415.62073     640.6323     411.2939
   1415.60547     639.0798     410.5488   1415.60547     639.0798     410.5488
   1415.59021     639.2921     410.5045   1415.59021     639.2921     410.5045
   1415.57495     638.1122     409.6864   1415.57495     638.1122     409.6864
   1415.55969     637.2115     409.4395   1415.55969     637.2115     409.4395
   1415.54443     636.6953     409.0981   1415.54443     636.6953     409.0981
   1415.52917     635.7198     408.6625   1415.52917     635.7198     408.6625
   1415.51392     635.3080     407.7386   1415.51392     635.3080     407.7386
   1415.49866     633.6205     407.0914   1415.49866     633.6205     407.0914
   1415.48340     633.5405     406.2549   1415.48340     633.5405     406.2549
   1415.46814     631.6589     405.7819   1415.46814     631.6589     405.7819
   1415.45288     631.8566     405.0780   1415.45288     631.8566     405.0780
   1415.43762     630.4153     405.3336   1415.43762     630.4153     405.3336
   1415.42236     630.2009     405.4319   1415.42236     630.2009     405.4319
   1415.40710     628.6425     404.8754   1415.40710     628.6425     404.8754
   1415.39185     627.4626     403.0977   1415.39185     627.4626     403.0977
   1415.37659     625.3011     402.9128   1415.37659     625.3011     402.9128
   1415.36133     625.8518     402.6729   1415.36133     625.8518     402.6729
   1415.34607     624.5053     402.0999   1415.34607     624.5053     402.0999
   1415.33081     623.6896     401.5569   1415.33081     623.6896     401.5569
   1415.31555     622.2501     400.2861   1415.31555     622.2501     400.2861
   1415.30029     622.0853     399.7081   1415.30029     622.0853     399.7081
   1415.28503     621.5132     399.2325   1415.28503     621.5132     399.2325
   1415.26978     619.8765     399.2493   1415.26978     619.8765     399.2493
   1415.25452     619.6888     398.3632   1415.25452     619.6888     398.3632
   1415.23926     617.7921     397.8923   1415.23926     617.7921     397.8923
   1415.22400     616.2025     397.3017   1415.22400     616.2025     397.3017
   1415.20874     615.0425     396.8374   1415.20874     615.0425     396.8374
   1415.19348     614.3964     396.4033   1415.19348     614.3964     396.4033
   1415.17822     613.9981     395.2575   1415.17822     613.9981     395.2575
   1415.16296     612.2888     394.2786   1415.16296     612.2888     394.2786
   1415.14771     610.1819     394.1763   1415.14771     610.1819     394.1763
   1415.13245     609.4720     393.4935   1415.13245     609.4720     393.4935
   1415.11719     607.8036     392.7633   1415.11719     607.8036     392.7633
   1415.10193     607.3416     391.4692   1415.10193     607.3416     391.4692
   1415.08667     607.4128     391.3897   1415.08667     607.4128     391.3897
   1415.07141     605.6068     390.4968   1415.07141     605.6068     390.4968
   1415.05615     603.6211     390.0988   1415.05615     603.6211     390.0988
   1415.04089     602.3279     389.1978   1415.04089     602.3279     389.1978
   1415.02563     600.5714     389.3400   1415.02563     600.5714     389.3400
   1415.01038     600.1353     388.5757   1415.01038     600.1353     388.5757
   1414.99512     599.1755     387.2818   1414.99512     599.1755     387.2818
   1414.97986     596.8033     386.3519   1414.97986     596.8033     386.3519
   1414.96460     596.7101     386.0284   1414.96460     596.7101     386.0284
   1414.94934     594.9810     385.9586   1414.94934     594.9810     385.9586
   1414.93408     593.5289     384.1172   1414.93408     593.5289     384.1172
   1414.91882     591.8821     383.7206   1414.91882     591.8821     383.7206
   1414.90356     591.0037     382.9922   1414.90356     591.0037     382.9922
   1414.88831     589.1685     382.8922   1414.88831     589.1685     382.8922
   1414.87305     587.4092     381.4183   1414.87305     587.4092     381.4183
   1414.85779     586.3486     380.7270   1414.85779     586.3486     380.7270
   1414.84253     583.4980     380.1205   1414.84253     583.4980     380.1205
   1414.82727     583.6381     379.0783   1414.82727     583.6381     379.0783
   1414.81201     580.9473     378.5852   1414.81201     580.9473     378.5852
   1414.79675     580.6027     377.8109   1414.79675     580.6027     377.8109
   1414.78149     578.5663     377.0465   1414.78149     578.5663     377.0465
   1414.76624     577.0362     376.0586   1414.76624     577.0362     376.0586
   1414.75098     575.9611     375.1767   1414.75098     575.9611     375.1767
   1414.73572     574.1107     374.9520   1414.73572     574.1107     374.9520
   1414.72046     572.7455     373.1277   1414.72046     572.7455     373.1277
   1414.70520     570.8497     372.4861   1414.70520     570.8497     372.4861
   1414.68994     568.3975     372.0476   1414.68994     568.3975     372.0476
   1414.67468     567.3708     370.8716   1414.67468     567.3708     370.8716
   1414.65942     565.7488     369.6010   1414.65942     565.7488     369.6010
   1414.64417     563.8976     369.1588   1414.64417     563.8976     369.1588
   1414.62891     562.5715     368.4941   1414.62891     562.5715     368.4941
   1414.61365     560.5036     366.8366   1414.61365     560.5036     366.8366
   1414.59839     559.0386     366.3999   1414.59839     559.0386     366.3999
   1414.58313     556.9037     365.5734   1414.58313     556.9037     365.5734
   1414.56787     555.3345     364.8643   1414.56787     555.3345     364.8643
   1414.55261     553.9184     363.7252   1414.55261     553.9184     363.7252
   1414.53735     551.7382     362.4149   1414.53735     551.7382     362.4149
   1414.52209     550.3831     362.3853   1414.52209     550.3831     362.3853
   1414.50684     548.8616     361.1508   1414.50684     548.8616     361.1508
   1414.49158     545.9599     359.9491   1414.49158     545.9599     359.9491
   1414.47632     543.8061     359.1092   1414.47632     543.8061     359.1092
   1414.46106     541.9313     357.8206   1414.46106     541.9313     357.8206
   1414.44580     540.1953     356.8192   1414.44580     540.1953     356.8192
   1414.43054     537.3637     355.6450   1414.43054     537.3637     355.6450
   1414.41528     536.3566     354.9274   1414.41528     536.3566     354.9274
   1414.40002     535.0280     353.7463   1414.40002     535.0280     353.7463
   1414.38477     532.3096     352.7289   1414.38477     532.3096     352.7289
   1414.36951     530.6641     351.7841   1414.36951     530.6641     351.7841
   1414.35425     528.3728     350.8759   1414.35425     528.3728     350.8759
   1414.33899     526.2285     349.8032   1414.33899     526.2285     349.8032
   1414.32373     524.4152     348.8353   1414.32373     524.4152     348.8353
   1414.30847     522.1479     347.4569   1414.30847     522.1479     347.4569
   1414.29321     520.5142     346.6149   1414.29321     520.5142     346.6149
   1414.27795     518.0345     345.1705   1414.27795     518.0345     345.1705
   1414.26270     516.2184     343.4511   1414.26270     516.2184     343.4511
   1414.24744     513.7815     343.3429   1414.24744     513.7815     343.3429
   1414.23218     512.2970     341.7861   1414.23218     512.2970     341.7861
   1414.21692     510.3385     340.4201   1414.21692     510.3385     340.4201
   1414.20166     506.9789     339.6006   1414.20166     506.9789     339.6006
   1414.18640     505.3242     338.0471   1414.18640     505.3242     338.0471
   1414.17114     503.4916     337.7410   1414.17114     503.4916     337.7410
   1414.15588     500.8468     336.6609   1414.15588     500.8468     336.6609
   1414.14062     498.7191     335.1599   1414.14062     498.7191     335.1599
   1414.12537     495.7875     333.6591   1414.12537     495.7875     333.6591
   1414.11011     494.8846     333.2325   1414.11011     494.8846     333.2325
   1414.09485     491.8354     331.3778   1414.09485     491.8354     331.3778
   1414.07959     490.1359     330.2250   1414.07959     490.1359     330.2250
   1414.06433     487.9295     329.5383   1414.06433     487.9295     329.5383
   1414.04907     485.0323     327.5247   1414.04907     485.0323     327.5247
   1414.03381     482.5210     326.8112   1414.03381     482.5210     326.8112
   1414.01855     481.2425     326.1608   1414.01855     481.2425     326.1608
   1414.00330     501.8343     330.8354   1414.00330     501.8343     330.8354
   1413.98804     477.3054     323.4121   1413.98804     477.3054     323.4121
   1413.97278     473.8029     322.4321   1413.97278     473.8029     322.4321
   1413.95752     471.2251     320.4971   1413.95752     471.2251     320.4971
   1413.94226     468.7723     319.7381   1413.94226     468.7723     319.7381
   1413.92700     466.5966     318.3185   1413.92700     466.5966     318.3185
   1413.91174     464.0455     317.1041   1413.91174     464.0455     317.1041
   1413.89648     462.3229     316.1146   1413.89648     462.3229     316.1146
   1413.88123     459.7993     314.4169   1413.88123     459.7993     314.4169
   1413.86597     456.2344     313.1595   1413.86597     456.2344     313.1595
   1413.85071     454.4171     312.0939   1413.85071     454.4171     312.0939
   1413.83545     451.6721     311.3882   1413.83545     451.6721     311.3882
   1413.82019     449.5908     309.2198   1413.82019     449.5908     309.2198
   1413.80493     447.6912     308.5503   1413.80493     447.6912     308.5503
   1413.78967     445.3627     307.3532   1413.78967     445.3627     307.3532
   1413.77441     442.9474     305.3810   1413.77441     442.9474     305.3810
   1413.75916     440.2579     304.6110   1413.75916     440.2579     304.6110
   1413.74390     436.6137     302.6628   1413.74390     436.6137     302.6628
   1413.72864     435.5669     301.7371   1413.72864     435.5669     301.7371
   1413.71338     432.5189     300.7483   1413.71338     432.5189     300.7483
   1413.69812     430.0752     299.6288   1413.69812     430.0752     299.6288
   1413.68286     428.0572     297.8869   1413.68286     428.0572     297.8869
   1413.66760     425.9690     297.0506   1413.66760     425.9690     297.0506
   1413.65234     423.7156     295.4668   1413.65234     423.7156     295.4668
   1413.63708     420.4221     294.6600   1413.63708     420.4221     294.6600
   1413.62183     418.8398     292.9212   1413.62183     418.8398     292.9212
   1413.60657     416.1862     291.6902   1413.60657     416.1862     291.6902
   1413.59131     413.4685     290.3448   1413.59131     413.4685     290.3448
   1413.57605     411.0909     289.2992   1413.57605     411.0909     289.2992
   1413.56079     408.5542     288.0084   1413.56079     408.5542     288.0084
   1413.54553     405.6682     286.7934   1413.54553     405.6682     286.7934
   1413.53027     403.5145     285.4055   1413.53027     403.5145     285.4055
   1413.51501     401.8833     284.2803   1413.51501     401.8833     284.2803
   1413.49976     398.8103     283.0928   1413.49976     398.8103     283.0928
   1413.48450     397.2160     281.8789   1413.48450     397.2160     281.8789
   1413.46924     394.4886     280.7930   1413.46924     394.4886     280.7930
   1413.45398     392.2868     278.9843   1413.45398     392.2868     278.9843
   1413.43872     389.6201     277.8555   1413.43872     389.6201     277.8555
   1413.42346     387.3194     276.7428   1413.42346     387.3194     276.7428
   1413.40820     384.9737     275.4577   1413.40820     384.9737     275.4577
   1413.39294     383.2315     274.1633   1413.39294     383.2315     274.1633
   1413.37769     379.8368     272.7923   1413.37769     379.8368     272.7923
   1413.36243     378.0519     272.1689   1413.36243     378.0519     272.1689
   1413.34717     375.7634     270.7879   1413.34717     375.7634     270.7879
   1413.33191     373.4181     269.2451   1413.33191     373.4181     269.2451
   1413.31665     372.0358     268.6959   1413.31665     372.0358     268.6959
   1413.30139     369.6541     267.6527   1413.30139     369.6541     267.6527
   1413.28613     367.3122     266.5484   1413.28613     367.3122     266.5484
   1413.27087     364.9145     265.2321   1413.27087     364.9145     265.2321
   1413.25562     362.8663     264.1721   1413.25562     362.8663     264.1721
   1413.24036     360.9223     262.8789   1413.24036     360.9223     262.8789
   1413.22510     358.8191     261.5491   1413.22510     358.8191     261.5491
   1413.20984     356.7982     260.4427   1413.20984     356.7982     260.4427
   1413.19458     355.0153     259.4532   1413.19458     355.0153     259.4532
   1413.17932     352.6301     258.6489   1413.17932     352.6301     258.6489
   1413.16406     350.8534     257.2469   1413.16406     350.8534     257.2469
   1413.14880     348.1531     256.3145   1413.14880     348.1531     256.3145
   1413.13354     346.7239     254.8873   1413.13354     346.7239     254.8873
   1413.11829     345.3981     254.5462   1413.11829     345.3981     254.5462
   1413.10303     343.1752     253.1429   1413.10303     343.1752     253.1429
   1413.08777     341.2112     252.2187   1413.08777     341.2112     252.2187
   1413.07251     339.6196     251.4358   1413.07251     339.6196     251.4358
   1413.05725     337.1297     250.4814   1413.05725     337.1297     250.4814
   1413.04199     335.8737     249.7757   1413.04199     335.8737     249.7757
   1413.02673     333.8218     248.3649   1413.02673     333.8218     248.3649
   1413.01147     331.9294     247.6414   1413.01147     331.9294     247.6414
   1412.99622     330.2752     247.0278   1412.99622     330.2752     247.0278
   1412.98096     328.5909     246.4863   1412.98096     328.5909     246.4863
   1412.96570     326.7759     245.1512   1412.96570     326.7759     245.1512
   1412.95044     325.8405     244.3130   1412.95044     325.8405     244.3130
   1412.93518     323.9139     243.2853   1412.93518     323.9139     243.2853
   1412.91992     322.4520     242.7924   1412.91992     322.4520     242.7924
   1412.90466     320.4966     242.0354   1412.90466     320.4966     242.0354
   1412.88940     318.8022     241.1924   1412.88940     318.8022     241.1924
   1412.87415     317.4749     240.4362   1412.87415     317.4749     240.4362
   1412.85889     316.2515     239.7359   1412.85889     316.2515     239.7359
   1412.84363     314.5549     239.2132   1412.84363     314.5549     239.2132
   1412.82837     313.6987     238.6756   1412.82837     313.6987     238.6756
   1412.81311     312.6800     238.0063   1412.81311     312.6800     238.0063
   1412.79785     310.9225     237.1437   1412.79785     310.9225     237.1437
   1412.78259     310.6681     236.5812   1412.78259     310.6681     236.5812
   1412.76733     308.8532     236.0750   1412.76733     308.8532     236.0750
   1412.75208     307.8980     235.7908   1412.75208     307.8980     235.7908
   1412.73682     306.6661     234.8620   1412.73682     306.6661     234.8620
   1412.72156     305.5484     234.2430   1412.72156     305.5484     234.2430
   1412.70630     304.4080     233.8707   1412.70630     304.4080     233.8707
   1412.69104     303.5235     233.5988   1412.69104     303.5235     233.5988
   1412.67578     302.2514     233.5113   1412.67578     302.2514     233.5113
   1412.66052     301.9605     232.6692   1412.66052     301.9605     232.6692
   1412.64526     300.7222     232.5801   1412.64526     300.7222     232.5801
   1412.63000     299.6798     232.3068   1412.63000     299.6798     232.3068
   1412.61475     299.0634     232.1396   1412.61475     299.0634     232.1396
   1412.59949     298.2299     231.8062   1412.59949     298.2299     231.8062
   1412.58423     297.8465     231.5762   1412.58423     297.8465     231.5762
   1412.56897     297.0565     230.9786   1412.56897     297.0565     230.9786
   1412.55371     296.1343     231.0864   1412.55371     296.1343     231.0864
   1412.53845     296.1438     230.8334   1412.53845     296.1438     230.8334
   1412.52319     294.8150     230.8536   1412.52319     294.8150     230.8536
   1412.50793     294.3804     230.6674   1412.50793     294.3804     230.6674
   1412.49268     294.5654     230.7513   1412.49268     294.5654     230.7513
   1412.47742     293.9336     230.6379   1412.47742     293.9336     230.6379
   1412.46216     293.7785     230.8033   1412.46216     293.7785     230.8033
   1412.44690     293.4393     230.7137   1412.44690     293.4393     230.7137
   1412.43164     293.0720     230.7648   1412.43164     293.0720     230.7648
   1412.41638     292.5897     230.9419   1412.41638     292.5897     230.9419
   1412.40112     292.8130     231.1165   1412.40112     292.8130     231.1165
   1412.38586     292.7442     230.7798   1412.38586     292.7442     230.7798
   1412.37061     292.3512     231.2367   1412.37061     292.3512     231.2367
   1412.35535     292.0691     231.7004   1412.35535     292.0691     231.7004
   1412.34009     292.4659     231.9639   1412.34009     292.4659     231.9639
   1412.32483     292.6772     231.8642   1412.32483     292.6772     231.8642
   1412.30957     292.5546     232.5290   1412.30957     292.5546     232.5290
   1412.29431     292.4398     232.7080   1412.29431     292.4398     232.7080
   1412.27905     292.0983     233.2698   1412.27905     292.0983     233.2698
   1412.26379     293.2688     233.4842   1412.26379     293.2688     233.4842
   1412.24854     293.6087     233.8921   1412.24854     293.6087     233.8921
   1412.23328     293.9459     234.5986   1412.23328     293.9459     234.5986
   1412.21802     293.9905     234.8336   1412.21802     293.9905     234.8336
   1412.20276     294.3540     235.6876   1412.20276     294.3540     235.6876