#     FILENAME=!Skynet_57528_lach-cc-225_20640_21033.cyb.fits
#     BASENAME=Skynet_57528_lach-cc-225_20640_21033
#     SRC_NAME=lach-cc-225
#     OBSERVER=ccmadison16_9505
#     DATE_OBS=2016-05-20T19:42:19.680
#        OBSID=20640
#      SCANNUM=21033
#          MJD=57528.8221
#          UTC=71029
#     SCANTYPE=track
#     DATAMODE=HIRES
#     TUNEFREQ=1420.0000
# Actual_FREQ1=1420.0000
# Actual_FREQ2=1420.0000
#    LO1Tuning=6870.000
#     RFFILTER=1355_1435
#        OBSBW=-15.6250
#        NCHAN=1024 
#        FOCUS=37.0709
#           RA=07:13:41.40
#          DEC=-10:43:23.19
#      RA(hrs)=7.228200
#     DEC(deg)=-10.723100
#    AZIM(deg)=161.672
#    ELEV(deg)=38.951
#     IFattens=10.00, 9.00
#      WARNING=None
#    TCAL_XL1=7.9635
#    TCAL_YR1=9.1340
#    TCAL_XL2=7.9635
#    TCAL_YR2=9.1340
#     TRX_XL1=11.7060
#     TRX_YR1=11.7060
#     TRX_XL2=11.7060
#     TRX_YR2=11.7060
#        TAVE=1.0000
#Freq1(MHz)          XL1          YR1  Freq2(MHz)          XL2          YR2 

   1427.81250     358.3233     275.3880   1427.81250     358.3233     275.3880
   1427.79724     358.9750     276.1547   1427.79724     358.9750     276.1547
   1427.78198     359.0589     276.6427   1427.78198     359.0589     276.6427
   1427.76672     360.4091     277.0920   1427.76672     360.4091     277.0920
   1427.75146     361.5163     277.7156   1427.75146     361.5163     277.7156
   1427.73621     362.6427     278.6989   1427.73621     362.6427     278.6989
   1427.72095     363.0989     279.1852   1427.72095     363.0989     279.1852
   1427.70569     364.4785     279.9316   1427.70569     364.4785     279.9316
   1427.69043     364.8888     280.5618   1427.69043     364.8888     280.5618
   1427.67517     365.9148     281.6095   1427.67517     365.9148     281.6095
   1427.65991     367.3408     282.0268   1427.65991     367.3408     282.0268
   1427.64465     368.5689     282.6782   1427.64465     368.5689     282.6782
   1427.62939     369.9229     284.1775   1427.62939     369.9229     284.1775
   1427.61414     371.1178     284.7345   1427.61414     371.1178     284.7345
   1427.59888     372.5192     286.6988   1427.59888     372.5192     286.6988
   1427.58362     373.5264     287.3246   1427.58362     373.5264     287.3246
   1427.56836     375.5825     287.6467   1427.56836     375.5825     287.6467
   1427.55310     376.9041     288.9420   1427.55310     376.9041     288.9420
   1427.53784     378.6658     290.5670   1427.53784     378.6658     290.5670
   1427.52258     379.5703     291.2858   1427.52258     379.5703     291.2858
   1427.50732     382.2980     292.4753   1427.50732     382.2980     292.4753
   1427.49207     383.4863     293.3121   1427.49207     383.4863     293.3121
   1427.47681     384.8903     295.4745   1427.47681     384.8903     295.4745
   1427.46155     386.7385     296.1331   1427.46155     386.7385     296.1331
   1427.44629     389.1929     297.3863   1427.44629     389.1929     297.3863
   1427.43103     390.4211     299.0118   1427.43103     390.4211     299.0118
   1427.41577     392.2976     300.7224   1427.41577     392.2976     300.7224
   1427.40051     394.1665     301.5704   1427.40051     394.1665     301.5704
   1427.38525     396.0926     303.3707   1427.38525     396.0926     303.3707
   1427.37000     397.6326     305.0997   1427.37000     397.6326     305.0997
   1427.35474     400.3253     306.2535   1427.35474     400.3253     306.2535
   1427.33948     402.2646     308.4302   1427.33948     402.2646     308.4302
   1427.32422     404.5131     309.7873   1427.32422     404.5131     309.7873
   1427.30896     406.2599     311.1618   1427.30896     406.2599     311.1618
   1427.29370     408.2666     313.2979   1427.29370     408.2666     313.2979
   1427.27844     410.6903     314.8468   1427.27844     410.6903     314.8468
   1427.26318     413.8665     316.1072   1427.26318     413.8665     316.1072
   1427.24792     415.3150     318.3400   1427.24792     415.3150     318.3400
   1427.23267     417.2343     319.4880   1427.23267     417.2343     319.4880
   1427.21741     419.9461     321.5107   1427.21741     419.9461     321.5107
   1427.20215     421.8374     323.9110   1427.20215     421.8374     323.9110
   1427.18689     424.7921     325.7284   1427.18689     424.7921     325.7284
   1427.17163     427.0533     327.5798   1427.17163     427.0533     327.5798
   1427.15637     430.1121     329.4345   1427.15637     430.1121     329.4345
   1427.14111     431.8148     331.2445   1427.14111     431.8148     331.2445
   1427.12585     434.0779     333.4691   1427.12585     434.0779     333.4691
   1427.11060     437.1917     334.7021   1427.11060     437.1917     334.7021
   1427.09534     439.4281     337.3667   1427.09534     439.4281     337.3667
   1427.08008     441.9208     339.2069   1427.08008     441.9208     339.2069
   1427.06482     445.2076     341.6353   1427.06482     445.2076     341.6353
   1427.04956     447.3557     343.3322   1427.04956     447.3557     343.3322
   1427.03430     449.7859     345.9381   1427.03430     449.7859     345.9381
   1427.01904     452.2710     347.5243   1427.01904     452.2710     347.5243
   1427.00378     455.1990     349.3935   1427.00378     455.1990     349.3935
   1426.98853     458.0995     352.0741   1426.98853     458.0995     352.0741
   1426.97327     460.1259     353.8337   1426.97327     460.1259     353.8337
   1426.95801     463.4261     356.2028   1426.95801     463.4261     356.2028
   1426.94275     466.5795     358.9682   1426.94275     466.5795     358.9682
   1426.92749     468.4286     360.6048   1426.92749     468.4286     360.6048
   1426.91223     471.3848     362.5884   1426.91223     471.3848     362.5884
   1426.89697     474.1423     365.1334   1426.89697     474.1423     365.1334
   1426.88171     476.8024     366.9380   1426.88171     476.8024     366.9380
   1426.86646     479.1448     369.8363   1426.86646     479.1448     369.8363
   1426.85120     482.6790     372.1712   1426.85120     482.6790     372.1712
   1426.83594     485.9644     374.6949   1426.83594     485.9644     374.6949
   1426.82068     489.0821     376.1819   1426.82068     489.0821     376.1819
   1426.80542     490.9504     378.7911   1426.80542     490.9504     378.7911
   1426.79016     493.5786     381.6755   1426.79016     493.5786     381.6755
   1426.77490     496.9482     383.5118   1426.77490     496.9482     383.5118
   1426.75964     499.8416     386.2596   1426.75964     499.8416     386.2596
   1426.74438     502.8641     388.6840   1426.74438     502.8641     388.6840
   1426.72913     505.2252     391.0837   1426.72913     505.2252     391.0837
   1426.71387     508.2265     393.2294   1426.71387     508.2265     393.2294
   1426.69861     510.4212     395.4809   1426.69861     510.4212     395.4809
   1426.68335     513.4755     398.1909   1426.68335     513.4755     398.1909
   1426.66809     516.4730     400.4348   1426.66809     516.4730     400.4348
   1426.65283     519.0714     403.5067   1426.65283     519.0714     403.5067
   1426.63757     522.2352     405.4183   1426.63757     522.2352     405.4183
   1426.62231     526.8580     409.3977   1426.62231     526.8580     409.3977
   1426.60706     528.0258     410.7657   1426.60706     528.0258     410.7657
   1426.59180     531.1859     413.4017   1426.59180     531.1859     413.4017
   1426.57654     533.7043     415.1250   1426.57654     533.7043     415.1250
   1426.56128     536.0682     418.3254   1426.56128     536.0682     418.3254
   1426.54602     538.7355     420.3627   1426.54602     538.7355     420.3627
   1426.53076     542.2640     423.3576   1426.53076     542.2640     423.3576
   1426.51550     544.8093     425.4238   1426.51550     544.8093     425.4238
   1426.50024     547.5950     427.8096   1426.50024     547.5950     427.8096
   1426.48499     550.5519     431.0251   1426.48499     550.5519     431.0251
   1426.46973     553.4831     432.8437   1426.46973     553.4831     432.8437
   1426.45447     555.5394     435.6083   1426.45447     555.5394     435.6083
   1426.43921     558.2297     437.8282   1426.43921     558.2297     437.8282
   1426.42395     560.4573     439.9521   1426.42395     560.4573     439.9521
   1426.40869     562.3438     442.1850   1426.40869     562.3438     442.1850
   1426.39343     566.7122     445.0439   1426.39343     566.7122     445.0439
   1426.37817     570.2087     447.3567   1426.37817     570.2087     447.3567
   1426.36292     572.2754     450.1889   1426.36292     572.2754     450.1889
   1426.34766     575.0853     452.3849   1426.34766     575.0853     452.3849
   1426.33240     577.7913     455.4306   1426.33240     577.7913     455.4306
   1426.31714     580.0257     457.2006   1426.31714     580.0257     457.2006
   1426.30188     582.4449     460.0237   1426.30188     582.4449     460.0237
   1426.28662     584.4787     462.3839   1426.28662     584.4787     462.3839
   1426.27136     588.4753     464.8370   1426.27136     588.4753     464.8370
   1426.25610     589.9473     467.5644   1426.25610     589.9473     467.5644
   1426.24084     592.9739     469.4281   1426.24084     592.9739     469.4281
   1426.22559     595.0216     471.5044   1426.22559     595.0216     471.5044
   1426.21033     598.3257     475.2543   1426.21033     598.3257     475.2543
   1426.19507     600.3861     477.7401   1426.19507     600.3861     477.7401
   1426.17981     602.6117     479.7854   1426.17981     602.6117     479.7854
   1426.16455     605.2654     482.3053   1426.16455     605.2654     482.3053
   1426.14929     607.0374     484.3293   1426.14929     607.0374     484.3293
   1426.13403     610.4937     487.9472   1426.13403     610.4937     487.9472
   1426.11877     612.7745     489.3495   1426.11877     612.7745     489.3495
   1426.10352     613.6242     492.1236   1426.10352     613.6242     492.1236
   1426.08826     617.0184     493.3765   1426.08826     617.0184     493.3765
   1426.07300     618.2052     496.6534   1426.07300     618.2052     496.6534
   1426.05774     620.3262     499.1476   1426.05774     620.3262     499.1476
   1426.04248     623.2269     501.3054   1426.04248     623.2269     501.3054
   1426.02722     626.3301     503.3967   1426.02722     626.3301     503.3967
   1426.01196     628.0233     505.4109   1426.01196     628.0233     505.4109
   1425.99670     629.5836     507.9475   1425.99670     629.5836     507.9475
   1425.98145     632.4259     510.1401   1425.98145     632.4259     510.1401
   1425.96619     633.7446     511.8614   1425.96619     633.7446     511.8614
   1425.95093     636.2431     514.6722   1425.95093     636.2431     514.6722
   1425.93567     638.1946     517.9803   1425.93567     638.1946     517.9803
   1425.92041     639.9008     519.5911   1425.92041     639.9008     519.5911
   1425.90515     643.0483     522.5215   1425.90515     643.0483     522.5215
   1425.88989     644.2239     524.5134   1425.88989     644.2239     524.5134
   1425.87463     646.0092     525.9719   1425.87463     646.0092     525.9719
   1425.85938     648.3054     528.6177   1425.85938     648.3054     528.6177
   1425.84412     650.5535     531.5892   1425.84412     650.5535     531.5892
   1425.82886     651.1091     533.7744   1425.82886     651.1091     533.7744
   1425.81360     653.2249     534.8007   1425.81360     653.2249     534.8007
   1425.79834     656.0607     538.6234   1425.79834     656.0607     538.6234
   1425.78308     656.7463     540.2060   1425.78308     656.7463     540.2060
   1425.76782     658.7993     541.3035   1425.76782     658.7993     541.3035
   1425.75256     660.8118     544.3609   1425.75256     660.8118     544.3609
   1425.73730     661.0173     545.6996   1425.73730     661.0173     545.6996
   1425.72205     663.7354     548.2624   1425.72205     663.7354     548.2624
   1425.70679     664.8657     549.8212   1425.70679     664.8657     549.8212
   1425.69153     667.9866     553.0040   1425.69153     667.9866     553.0040
   1425.67627     668.7133     553.8440   1425.67627     668.7133     553.8440
   1425.66101     669.7441     556.6422   1425.66101     669.7441     556.6422
   1425.64575     671.1664     559.4528   1425.64575     671.1664     559.4528
   1425.63049     672.7040     559.5096   1425.63049     672.7040     559.5096
   1425.61523     675.7032     562.1749   1425.61523     675.7032     562.1749
   1425.59998     675.5410     564.8371   1425.59998     675.5410     564.8371
   1425.58472     677.5813     567.2255   1425.58472     677.5813     567.2255
   1425.56946     678.8627     569.1303   1425.56946     678.8627     569.1303
   1425.55420     680.5590     570.0702   1425.55420     680.5590     570.0702
   1425.53894     680.5789     572.4797   1425.53894     680.5789     572.4797
   1425.52368     682.3323     574.5474   1425.52368     682.3323     574.5474
   1425.50842     683.8395     576.5425   1425.50842     683.8395     576.5425
   1425.49316     684.8459     578.9856   1425.49316     684.8459     578.9856
   1425.47791     686.4175     579.9810   1425.47791     686.4175     579.9810
   1425.46265     688.2039     582.1525   1425.46265     688.2039     582.1525
   1425.44739     688.9019     584.1429   1425.44739     688.9019     584.1429
   1425.43213     689.8723     585.5902   1425.43213     689.8723     585.5902
   1425.41687     691.3447     586.4180   1425.41687     691.3447     586.4180
   1425.40161     692.5651     589.6725   1425.40161     692.5651     589.6725
   1425.38635     693.1290     591.5258   1425.38635     693.1290     591.5258
   1425.37109     694.3340     593.0490   1425.37109     694.3340     593.0490
   1425.35583     695.5624     595.1075   1425.35583     695.5624     595.1075
   1425.34058     695.8204     596.8528   1425.34058     695.8204     596.8528
   1425.32532     695.9890     598.3472   1425.32532     695.9890     598.3472
   1425.31006     697.3533     599.9694   1425.31006     697.3533     599.9694
   1425.29480     699.5274     601.1801   1425.29480     699.5274     601.1801
   1425.27954     699.0259     603.7198   1425.27954     699.0259     603.7198
   1425.26428     700.7880     605.8435   1425.26428     700.7880     605.8435
   1425.24902     702.1705     607.1650   1425.24902     702.1705     607.1650
   1425.23376     702.1080     609.3871   1425.23376     702.1080     609.3871
   1425.21851     703.5332     610.0981   1425.21851     703.5332     610.0981
   1425.20325     704.2566     611.7489   1425.20325     704.2566     611.7489
   1425.18799     702.7750     613.5948   1425.18799     702.7750     613.5948
   1425.17273     706.4345     614.3585   1425.17273     706.4345     614.3585
   1425.15747     705.2070     617.4680   1425.15747     705.2070     617.4680
   1425.14221     707.1243     617.0030   1425.14221     707.1243     617.0030
   1425.12695     707.5306     619.6786   1425.12695     707.5306     619.6786
   1425.11169     708.5387     621.1005   1425.11169     708.5387     621.1005
   1425.09644     707.8738     621.8206   1425.09644     707.8738     621.8206
   1425.08118     708.9706     623.5383   1425.08118     708.9706     623.5383
   1425.06592     710.7683     625.1794   1425.06592     710.7683     625.1794
   1425.05066     709.2585     625.9177   1425.05066     709.2585     625.9177
   1425.03540     710.9331     627.3168   1425.03540     710.9331     627.3168
   1425.02014     710.9533     630.1501   1425.02014     710.9533     630.1501
   1425.00488     712.6077     629.5342   1425.00488     712.6077     629.5342
   1424.98962     712.3922     631.8152   1424.98962     712.3922     631.8152
   1424.97437     713.1101     632.6082   1424.97437     713.1101     632.6082
   1424.95911     713.4075     633.4721   1424.95911     713.4075     633.4721
   1424.94385     714.3216     636.0155   1424.94385     714.3216     636.0155
   1424.92859     713.0330     636.5320   1424.92859     713.0330     636.5320
   1424.91333     714.2786     637.9957   1424.91333     714.2786     637.9957
   1424.89807     713.6554     639.8233   1424.89807     713.6554     639.8233
   1424.88281     714.5867     641.2654   1424.88281     714.5867     641.2654
   1424.86755     715.3234     642.2699   1424.86755     715.3234     642.2699
   1424.85229     717.0185     641.6598   1424.85229     717.0185     641.6598
   1424.83704     716.7433     643.7110   1424.83704     716.7433     643.7110
   1424.82178     715.9398     645.2841   1424.82178     715.9398     645.2841
   1424.80652     717.0894     646.5414   1424.80652     717.0894     646.5414
   1424.79126     715.9282     646.2133   1424.79126     715.9282     646.2133
   1424.77600     717.6214     646.5406   1424.77600     717.6214     646.5406
   1424.76074     716.7407     647.8113   1424.76074     716.7407     647.8113
   1424.74548     717.4460     650.0645   1424.74548     717.4460     650.0645
   1424.73022     718.1462     651.1773   1424.73022     718.1462     651.1773
   1424.71497     717.0860     652.6250   1424.71497     717.0860     652.6250
   1424.69971     718.7537     653.4573   1424.69971     718.7537     653.4573
   1424.68445     717.3989     653.5195   1424.68445     717.3989     653.5195
   1424.66919     719.1079     655.3515   1424.66919     719.1079     655.3515
   1424.65393     719.1011     655.2751   1424.65393     719.1011     655.2751
   1424.63867     719.1594     656.3278   1424.63867     719.1594     656.3278
   1424.62341     718.3469     657.8486   1424.62341     718.3469     657.8486
   1424.60815     719.1534     658.9383   1424.60815     719.1534     658.9383
   1424.59290     719.9109     658.9095   1424.59290     719.9109     658.9095
   1424.57764     718.8849     660.6766   1424.57764     718.8849     660.6766
   1424.56238     719.1520     661.4628   1424.56238     719.1520     661.4628
   1424.54712     720.1700     661.3321   1424.54712     720.1700     661.3321
   1424.53186     719.8272     662.3490   1424.53186     719.8272     662.3490
   1424.51660     718.1296     663.7889   1424.51660     718.1296     663.7889
   1424.50134     719.3155     663.2599   1424.50134     719.3155     663.2599
   1424.48608     719.5496     664.3038   1424.48608     719.5496     664.3038
   1424.47083     719.1740     665.1438   1424.47083     719.1740     665.1438
   1424.45557     719.3185     665.2088   1424.45557     719.3185     665.2088
   1424.44031     719.2285     666.4499   1424.44031     719.2285     666.4499
   1424.42505     719.4203     667.2875   1424.42505     719.4203     667.2875
   1424.40979     718.4926     666.3862   1424.40979     718.4926     666.3862
   1424.39453     718.6052     668.7078   1424.39453     718.6052     668.7078
   1424.37927     719.6111     669.6069   1424.37927     719.6111     669.6069
   1424.36401     719.1007     668.9868   1424.36401     719.1007     668.9868
   1424.34875     718.6622     669.1296   1424.34875     718.6622     669.1296
   1424.33350     719.0147     669.9127   1424.33350     719.0147     669.9127
   1424.31824     718.8869     670.8394   1424.31824     718.8869     670.8394
   1424.30298     718.4713     671.5987   1424.30298     718.4713     671.5987
   1424.28772     719.1507     670.2924   1424.28772     719.1507     670.2924
   1424.27246     718.5612     671.4542   1424.27246     718.5612     671.4542
   1424.25720     717.7104     670.8102   1424.25720     717.7104     670.8102
   1424.24194     718.0384     671.8001   1424.24194     718.0384     671.8001
   1424.22668     719.3966     671.8365   1424.22668     719.3966     671.8365
   1424.21143     718.2963     671.3466   1424.21143     718.2963     671.3466
   1424.19617     717.7900     672.5208   1424.19617     717.7900     672.5208
   1424.18091     718.3329     672.9134   1424.18091     718.3329     672.9134
   1424.16565     717.3129     672.2073   1424.16565     717.3129     672.2073
   1424.15039     718.5366     673.7608   1424.15039     718.5366     673.7608
   1424.13513     717.8347     674.2019   1424.13513     717.8347     674.2019
   1424.11987     718.0771     674.3190   1424.11987     718.0771     674.3190
   1424.10461     717.8803     674.6484   1424.10461     717.8803     674.6484
   1424.08936     716.7640     674.5203   1424.08936     716.7640     674.5203
   1424.07410     717.2061     674.6730   1424.07410     717.2061     674.6730
   1424.05884     716.5843     674.4736   1424.05884     716.5843     674.4736
   1424.04358     716.2260     674.8483   1424.04358     716.2260     674.8483
   1424.02832     717.1849     674.8425   1424.02832     717.1849     674.8425
   1424.01306     716.4775     675.4324   1424.01306     716.4775     675.4324
   1423.99780     716.1860     674.9171   1423.99780     716.1860     674.9171
   1423.98254     716.3684     674.7964   1423.98254     716.3684     674.7964
   1423.96729     716.0312     674.8184   1423.96729     716.0312     674.8184
   1423.95203     715.2649     674.6613   1423.95203     715.2649     674.6613
   1423.93677     714.8724     674.6266   1423.93677     714.8724     674.6266
   1423.92151     715.4072     674.1895   1423.92151     715.4072     674.1895
   1423.90625     713.7714     673.8718   1423.90625     713.7714     673.8718
   1423.89099     715.1709     673.4260   1423.89099     715.1709     673.4260
   1423.87573     714.3317     673.8583   1423.87573     714.3317     673.8583
   1423.86047     714.0847     674.3982   1423.86047     714.0847     674.3982
   1423.84521     713.8879     672.9950   1423.84521     713.8879     672.9950
   1423.82996     713.5382     673.4808   1423.82996     713.5382     673.4808
   1423.81470     714.9107     673.3464   1423.81470     714.9107     673.3464
   1423.79944     712.9547     672.8289   1423.79944     712.9547     672.8289
   1423.78418     712.9207     673.3901   1423.78418     712.9207     673.3901
   1423.76892     712.6062     672.1990   1423.76892     712.6062     672.1990
   1423.75366     713.2966     671.3109   1423.75366     713.2966     671.3109
   1423.73840     713.3360     672.8419   1423.73840     713.3360     672.8419
   1423.72314     711.3982     671.8002   1423.72314     711.3982     671.8002
   1423.70789     710.9535     670.8382   1423.70789     710.9535     670.8382
   1423.69263     712.6810     670.2906   1423.69263     712.6810     670.2906
   1423.67737     711.7394     669.4244   1423.67737     711.7394     669.4244
   1423.66211     712.1110     669.7585   1423.66211     712.1110     669.7585
   1423.64685     710.3269     669.5444   1423.64685     710.3269     669.5444
   1423.63159     711.7031     669.0945   1423.63159     711.7031     669.0945
   1423.61633     710.5294     668.2394   1423.61633     710.5294     668.2394
   1423.60107     709.4517     667.6195   1423.60107     709.4517     667.6195
   1423.58582     709.7098     667.6183   1423.58582     709.7098     667.6183
   1423.57056     710.3211     666.4358   1423.57056     710.3211     666.4358
   1423.55530     709.1027     666.9573   1423.55530     709.1027     666.9573
   1423.54004     709.5402     665.8931   1423.54004     709.5402     665.8931
   1423.52478     708.6326     665.3868   1423.52478     708.6326     665.3868
   1423.50952     709.1736     665.9490   1423.50952     709.1736     665.9490
   1423.49426     708.2764     665.0862   1423.49426     708.2764     665.0862
   1423.47900     708.4374     664.6074   1423.47900     708.4374     664.6074
   1423.46375     708.1521     662.7556   1423.46375     708.1521     662.7556
   1423.44849     706.8372     661.6169   1423.44849     706.8372     661.6169
   1423.43323     707.8493     661.1765   1423.43323     707.8493     661.1765
   1423.41797     706.8157     661.6646   1423.41797     706.8157     661.6646
   1423.40271     707.1011     659.5906   1423.40271     707.1011     659.5906
   1423.38745     707.6411     660.3862   1423.38745     707.6411     660.3862
   1423.37219     706.8557     657.9913   1423.37219     706.8557     657.9913
   1423.35693     706.6053     658.8150   1423.35693     706.6053     658.8150
   1423.34167     705.8343     656.0000   1423.34167     705.8343     656.0000
   1423.32642     706.2897     655.3382   1423.32642     706.2897     655.3382
   1423.31116     704.4595     655.5267   1423.31116     704.4595     655.5267
   1423.29590     704.3275     654.8155   1423.29590     704.3275     654.8155
   1423.28064     704.7628     653.7454   1423.28064     704.7628     653.7454
   1423.26538     703.6714     653.1179   1423.26538     703.6714     653.1179
   1423.25012     704.0696     653.3479   1423.25012     704.0696     653.3479
   1423.23486     703.8901     651.5011   1423.23486     703.8901     651.5011
   1423.21960     703.4345     650.3922   1423.21960     703.4345     650.3922
   1423.20435     704.5153     650.1205   1423.20435     704.5153     650.1205
   1423.18909     702.7838     647.8653   1423.18909     702.7838     647.8653
   1423.17383     703.0634     648.0261   1423.17383     703.0634     648.0261
   1423.15857     702.1021     646.5767   1423.15857     702.1021     646.5767
   1423.14331     702.7194     645.0427   1423.14331     702.7194     645.0427
   1423.12805     701.8235     644.1733   1423.12805     701.8235     644.1733
   1423.11279     701.4729     644.7903   1423.11279     701.4729     644.7903
   1423.09753     701.9241     642.1526   1423.09753     701.9241     642.1526
   1423.08228     701.4012     641.6618   1423.08228     701.4012     641.6618
   1423.06702     702.7358     641.4921   1423.06702     702.7358     641.4921
   1423.05176     701.6206     639.7874   1423.05176     701.6206     639.7874
   1423.03650     701.0211     639.2310   1423.03650     701.0211     639.2310
   1423.02124     700.7168     637.7356   1423.02124     700.7168     637.7356
   1423.00598     700.7148     636.8227   1423.00598     700.7148     636.8227
   1422.99072     700.1059     636.0676   1422.99072     700.1059     636.0676
   1422.97546     699.9341     634.8753   1422.97546     699.9341     634.8753
   1422.96021     700.0452     633.5682   1422.96021     700.0452     633.5682
   1422.94495     699.1033     632.4920   1422.94495     699.1033     632.4920
   1422.92969     699.4952     631.2515   1422.92969     699.4952     631.2515
   1422.91443     698.8315     630.0869   1422.91443     698.8315     630.0869
   1422.89917     699.1437     629.0903   1422.89917     699.1437     629.0903
   1422.88391     698.1292     627.8309   1422.88391     698.1292     627.8309
   1422.86865     697.8035     627.0943   1422.86865     697.8035     627.0943
   1422.85339     698.1475     625.2814   1422.85339     698.1475     625.2814
   1422.83813     697.6985     623.5010   1422.83813     697.6985     623.5010
   1422.82288     697.8950     623.3942   1422.82288     697.8950     623.3942
   1422.80762     697.1058     622.3987   1422.80762     697.1058     622.3987
   1422.79236     695.9214     620.4495   1422.79236     695.9214     620.4495
   1422.77710     696.3083     618.8215   1422.77710     696.3083     618.8215
   1422.76184     695.5109     618.4466   1422.76184     695.5109     618.4466
   1422.74658     696.5687     617.6181   1422.74658     696.5687     617.6181
   1422.73132     696.8574     616.1428   1422.73132     696.8574     616.1428
   1422.71606     694.4613     613.5746   1422.71606     694.4613     613.5746
   1422.70081     694.8674     612.9973   1422.70081     694.8674     612.9973
   1422.68555     695.7129     611.7728   1422.68555     695.7129     611.7728
   1422.67029     694.0791     609.8573   1422.67029     694.0791     609.8573
   1422.65503     693.9380     609.3811   1422.65503     693.9380     609.3811
   1422.63977     694.0639     609.1102   1422.63977     694.0639     609.1102
   1422.62451     694.0452     606.5799   1422.62451     694.0452     606.5799
   1422.60925     694.2236     605.5179   1422.60925     694.2236     605.5179
   1422.59399     693.7141     604.9182   1422.59399     693.7141     604.9182
   1422.57874     692.9966     602.4742   1422.57874     692.9966     602.4742
   1422.56348     693.7197     602.2141   1422.56348     693.7197     602.2141
   1422.54822     693.6425     600.4787   1422.54822     693.6425     600.4787
   1422.53296     691.4708     599.0851   1422.53296     691.4708     599.0851
   1422.51770     693.3892     597.8972   1422.51770     693.3892     597.8972
   1422.50244     692.8817     596.5009   1422.50244     692.8817     596.5009
   1422.48718     692.0684     594.8293   1422.48718     692.0684     594.8293
   1422.47192     692.1647     593.3707   1422.47192     692.1647     593.3707
   1422.45667     691.6331     591.8531   1422.45667     691.6331     591.8531
   1422.44141     691.2470     591.2229   1422.44141     691.2470     591.2229
   1422.42615     691.6691     589.8276   1422.42615     691.6691     589.8276
   1422.41089     689.4820     589.7316   1422.41089     689.4820     589.7316
   1422.39563     690.6896     587.2156   1422.39563     690.6896     587.2156
   1422.38037     690.2132     586.0215   1422.38037     690.2132     586.0215
   1422.36511     690.1116     585.1516   1422.36511     690.1116     585.1516
   1422.34985     688.7611     582.6297   1422.34985     688.7611     582.6297
   1422.33459     690.8818     582.0376   1422.33459     690.8818     582.0376
   1422.31934     688.5645     580.3265   1422.31934     688.5645     580.3265
   1422.30408     688.9025     579.9357   1422.30408     688.9025     579.9357
   1422.28882     688.8579     578.3212   1422.28882     688.8579     578.3212
   1422.27356     688.7980     576.7178   1422.27356     688.7980     576.7178
   1422.25830     688.0497     575.1913   1422.25830     688.0497     575.1913
   1422.24304     688.6552     573.5767   1422.24304     688.6552     573.5767
   1422.22778     687.8795     574.0829   1422.22778     687.8795     574.0829
   1422.21252     686.6042     571.5524   1422.21252     686.6042     571.5524
   1422.19727     686.8356     569.9630   1422.19727     686.8356     569.9630
   1422.18201     687.0464     568.3720   1422.18201     687.0464     568.3720
   1422.16675     686.8990     566.9393   1422.16675     686.8990     566.9393
   1422.15149     686.1697     564.8343   1422.15149     686.1697     564.8343
   1422.13623     687.0841     563.4100   1422.13623     687.0841     563.4100
   1422.12097     685.8185     563.8843   1422.12097     685.8185     563.8843
   1422.10571     686.1710     561.0475   1422.10571     686.1710     561.0475
   1422.09045     685.0012     559.8168   1422.09045     685.0012     559.8168
   1422.07520     685.4202     559.0108   1422.07520     685.4202     559.0108
   1422.05994     685.2591     557.7052   1422.05994     685.2591     557.7052
   1422.04468     684.1751     555.8585   1422.04468     684.1751     555.8585
   1422.02942     684.5082     554.8384   1422.02942     684.5082     554.8384
   1422.01416     683.9566     552.6712   1422.01416     683.9566     552.6712
   1421.99890     684.2340     552.4405   1421.99890     684.2340     552.4405
   1421.98364     684.2766     550.6057   1421.98364     684.2766     550.6057
   1421.96838     683.2946     550.5656   1421.96838     683.2946     550.5656
   1421.95312     683.8206     548.5182   1421.95312     683.8206     548.5182
   1421.93787     682.3535     547.2120   1421.93787     682.3535     547.2120
   1421.92261     683.1132     545.1979   1421.92261     683.1132     545.1979
   1421.90735     682.6377     544.2556   1421.90735     682.6377     544.2556
   1421.89209     682.1024     543.1316   1421.89209     682.1024     543.1316
   1421.87683     681.9807     541.0942   1421.87683     681.9807     541.0942
   1421.86157     682.8068     541.1439   1421.86157     682.8068     541.1439
   1421.84631     681.7759     538.3680   1421.84631     681.7759     538.3680
   1421.83105     682.1161     537.6661   1421.83105     682.1161     537.6661
   1421.81580     680.2754     536.3290   1421.81580     680.2754     536.3290
   1421.80054     680.6602     535.0086   1421.80054     680.6602     535.0086
   1421.78528     680.8475     533.2822   1421.78528     680.8475     533.2822
   1421.77002     679.1306     533.1171   1421.77002     679.1306     533.1171
   1421.75476     679.7823     531.1678   1421.75476     679.7823     531.1678
   1421.73950     679.8693     530.1191   1421.73950     679.8693     530.1191
   1421.72424     679.5862     529.4200   1421.72424     679.5862     529.4200
   1421.70898     678.8299     526.5394   1421.70898     678.8299     526.5394
   1421.69373     679.5793     526.0172   1421.69373     679.5793     526.0172
   1421.67847     679.0195     524.9387   1421.67847     679.0195     524.9387
   1421.66321     678.2900     523.7261   1421.66321     678.2900     523.7261
   1421.64795     678.4854     522.1080   1421.64795     678.4854     522.1080
   1421.63269     677.8658     520.5578   1421.63269     677.8658     520.5578
   1421.61743     677.3578     519.1754   1421.61743     677.3578     519.1754
   1421.60217     677.3483     518.3344   1421.60217     677.3483     518.3344
   1421.58691     678.6050     516.6402   1421.58691     678.6050     516.6402
   1421.57166     675.7802     516.0454   1421.57166     675.7802     516.0454
   1421.55640     676.7328     514.4280   1421.55640     676.7328     514.4280
   1421.54114     675.6276     512.7222   1421.54114     675.6276     512.7222
   1421.52588     676.0348     512.0021   1421.52588     676.0348     512.0021
   1421.51062     675.1147     510.7058   1421.51062     675.1147     510.7058
   1421.49536     675.5120     508.8577   1421.49536     675.5120     508.8577
   1421.48010     675.7303     507.4259   1421.48010     675.7303     507.4259
   1421.46484     674.6669     507.4984   1421.46484     674.6669     507.4984
   1421.44958     673.6112     505.1732   1421.44958     673.6112     505.1732
   1421.43433     674.0485     505.0502   1421.43433     674.0485     505.0502
   1421.41907     674.2784     503.3314   1421.41907     674.2784     503.3314
   1421.40381     673.2828     502.3857   1421.40381     673.2828     502.3857
   1421.38855     674.0532     501.1911   1421.38855     674.0532     501.1911
   1421.37329     671.9494     499.2009   1421.37329     671.9494     499.2009
   1421.35803     673.0282     498.5680   1421.35803     673.0282     498.5680
   1421.34277     673.1956     497.2169   1421.34277     673.1956     497.2169
   1421.32751     672.0825     496.2847   1421.32751     672.0825     496.2847
   1421.31226     671.2813     495.3104   1421.31226     671.2813     495.3104
   1421.29700     671.5125     493.8333   1421.29700     671.5125     493.8333
   1421.28174     670.5930     491.1502   1421.28174     670.5930     491.1502
   1421.26648     670.9397     491.2924   1421.26648     670.9397     491.2924
   1421.25122     671.0508     490.5480   1421.25122     671.0508     490.5480
   1421.23596     670.9097     489.1385   1421.23596     670.9097     489.1385
   1421.22070     669.3987     487.7493   1421.22070     669.3987     487.7493
   1421.20544     669.0904     485.7684   1421.20544     669.0904     485.7684
   1421.19019     670.5371     485.2900   1421.19019     670.5371     485.2900
   1421.17493     669.3958     483.9235   1421.17493     669.3958     483.9235
   1421.15967     669.2943     483.4668   1421.15967     669.2943     483.4668
   1421.14441     667.8782     482.0159   1421.14441     667.8782     482.0159
   1421.12915     668.5110     481.7214   1421.12915     668.5110     481.7214
   1421.11389     669.1102     479.4387   1421.11389     669.1102     479.4387
   1421.09863     668.5583     478.9290   1421.09863     668.5583     478.9290
   1421.08337     667.0113     478.1119   1421.08337     667.0113     478.1119
   1421.06812     667.3135     476.6026   1421.06812     667.3135     476.6026
   1421.05286     667.6689     475.6354   1421.05286     667.6689     475.6354
   1421.03760     666.5332     474.8123   1421.03760     666.5332     474.8123
   1421.02234     666.3669     473.3000   1421.02234     666.3669     473.3000
   1421.00708     667.3730     472.8859   1421.00708     667.3730     472.8859
   1420.99182     665.8745     471.1106   1420.99182     665.8745     471.1106
   1420.97656     666.9033     470.0758   1420.97656     666.9033     470.0758
   1420.96130     665.8477     469.3529   1420.96130     665.8477     469.3529
   1420.94604     664.9266     468.9970   1420.94604     664.9266     468.9970
   1420.93079     665.4211     467.6746   1420.93079     665.4211     467.6746
   1420.91553     664.1326     465.7984   1420.91553     664.1326     465.7984
   1420.90027     665.7943     465.0966   1420.90027     665.7943     465.0966
   1420.88501     664.1045     463.9320   1420.88501     664.1045     463.9320
   1420.86975     665.0577     462.9316   1420.86975     665.0577     462.9316
   1420.85449     664.5007     462.3262   1420.85449     664.5007     462.3262
   1420.83923     664.4171     461.7599   1420.83923     664.4171     461.7599
   1420.82397     664.4306     460.8968   1420.82397     664.4306     460.8968
   1420.80872     664.7512     459.0113   1420.80872     664.7512     459.0113
   1420.79346     663.1928     459.1250   1420.79346     663.1928     459.1250
   1420.77820     663.6469     458.2954   1420.77820     663.6469     458.2954
   1420.76294     664.1365     457.2320   1420.76294     664.1365     457.2320
   1420.74768     664.9219     457.3385   1420.74768     664.9219     457.3385
   1420.73242     663.0703     455.4338   1420.73242     663.0703     455.4338
   1420.71716     664.1486     454.8750   1420.71716     664.1486     454.8750
   1420.70190     664.6303     453.3241   1420.70190     664.6303     453.3241
   1420.68665     664.3127     453.6652   1420.68665     664.3127     453.6652
   1420.67139     663.1350     452.3016   1420.67139     663.1350     452.3016
   1420.65613     663.5576     451.0892   1420.65613     663.5576     451.0892
   1420.64087     663.4930     449.8548   1420.64087     663.4930     449.8548
   1420.62561     663.2158     449.2352   1420.62561     663.2158     449.2352
   1420.61035     662.4683     448.8813   1420.61035     662.4683     448.8813
   1420.59509     661.3185     447.6596   1420.59509     661.3185     447.6596
   1420.57983     662.5248     447.3536   1420.57983     662.5248     447.3536
   1420.56458     663.7250     447.0793   1420.56458     663.7250     447.0793
   1420.54932     664.8381     447.6862   1420.54932     664.8381     447.6862
   1420.53406     666.2188     447.8476   1420.53406     666.2188     447.8476
   1420.51880     667.6570     447.4903   1420.51880     667.6570     447.4903
   1420.50354     667.2562     447.6126   1420.50354     667.2562     447.6126
   1420.48828     668.8226     445.2491   1420.48828     668.8226     445.2491
   1420.47302     665.7731     443.7411   1420.47302     665.7731     443.7411
   1420.45776     665.4441     442.9916   1420.45776     665.4441     442.9916
   1420.44250     664.8780     441.6175   1420.44250     664.8780     441.6175
   1420.42725     665.2437     440.7937   1420.42725     665.2437     440.7937
   1420.41199     664.3833     439.9566   1420.41199     664.3833     439.9566
   1420.39673     662.8417     439.4713   1420.39673     662.8417     439.4713
   1420.38147     664.9088     438.9396   1420.38147     664.9088     438.9396
   1420.36621     664.7533     438.7560   1420.36621     664.7533     438.7560
   1420.35095     666.1318     437.9901   1420.35095     666.1318     437.9901
   1420.33569     667.3160     438.6357   1420.33569     667.3160     438.6357
   1420.32043     669.8041     439.7694   1420.32043     669.8041     439.7694
   1420.30518     674.0297     441.6529   1420.30518     674.0297     441.6529
   1420.28992     682.1754     446.3304   1420.28992     682.1754     446.3304
   1420.27466     697.3777     455.5535   1420.27466     697.3777     455.5535
   1420.25940     727.1309     473.2377   1420.25940     727.1309     473.2377
   1420.24414     829.1774     537.3300   1420.24414     829.1774     537.3300
   1420.22888    1095.2656     702.5527   1420.22888    1095.2656     702.5527
   1420.21362    1202.8552     768.5701   1420.21362    1202.8552     768.5701
   1420.19836    1106.4276     707.2462   1420.19836    1106.4276     707.2462
   1420.18311    1249.6489     798.5917   1420.18311    1249.6489     798.5917
   1420.16785    1748.2218    1108.2540   1420.16785    1748.2218    1108.2540
   1420.15259    1937.9269    1223.7429   1420.15259    1937.9269    1223.7429
   1420.13733    1660.6025    1048.4990   1420.13733    1660.6025    1048.4990
   1420.12207    1170.2773     742.3668   1420.12207    1170.2773     742.3668
   1420.10681     997.2145     633.2068   1420.10681     997.2145     633.2068
   1420.09155    1092.5913     691.8083   1420.09155    1092.5913     691.8083
   1420.07629    1437.6110     902.8892   1420.07629    1437.6110     902.8892
   1420.06104    1341.8766     843.2635   1420.06104    1341.8766     843.2635
   1420.04578    1356.1398     850.3228   1420.04578    1356.1398     850.3228
   1420.03052    1395.3535     875.7537   1420.03052    1395.3535     875.7537
   1420.01526    1287.1923     807.1744   1420.01526    1287.1923     807.1744
   1420.00000    1330.8868     832.8340   1420.00000    1330.8868     832.8340
   1419.98474    1374.5809     858.4936   1419.98474    1374.5809     858.4936
   1419.96948    1415.4392     882.9182   1419.96948    1415.4392     882.9182
   1419.95422    1484.0861     925.2792   1419.95422    1484.0861     925.2792
   1419.93896    1678.9437    1041.7532   1419.93896    1678.9437    1041.7532
   1419.92371    1755.0046    1084.7877   1419.92371    1755.0046    1084.7877
   1419.90845    1644.6318    1019.2074   1419.90845    1644.6318    1019.2074
   1419.89319    1467.8831     908.3220   1419.89319    1467.8831     908.3220
   1419.87793    1251.1998     775.1136   1419.87793    1251.1998     775.1136
   1419.86267     982.3152     612.7867   1419.86267     982.3152     612.7867
   1419.84741     843.2065     527.0189   1419.84741     843.2065     527.0189
   1419.83215     782.9344     490.5760   1419.83215     782.9344     490.5760
   1419.81689     744.0460     465.8486   1419.81689     744.0460     465.8486
   1419.80164     716.2486     447.1583   1419.80164     716.2486     447.1583
   1419.78638     697.7957     437.5587   1419.78638     697.7957     437.5587
   1419.77112     688.9734     430.3383   1419.77112     688.9734     430.3383
   1419.75586     682.7880     426.1310   1419.75586     682.7880     426.1310
   1419.74060     677.7109     422.7275   1419.74060     677.7109     422.7275
   1419.72534     673.4284     419.7093   1419.72534     673.4284     419.7093
   1419.71008     668.7382     416.7999   1419.71008     668.7382     416.7999
   1419.69482     665.5180     414.8529   1419.69482     665.5180     414.8529
   1419.67957     663.4985     413.0324   1419.67957     663.4985     413.0324
   1419.66431     661.7141     411.4136   1419.66431     661.7141     411.4136
   1419.64905     661.6918     410.5120   1419.64905     661.6918     410.5120
   1419.63379     661.1696     409.0692   1419.63379     661.1696     409.0692
   1419.61853     659.9235     408.9367   1419.61853     659.9235     408.9367
   1419.60327     660.7672     408.8113   1419.60327     660.7672     408.8113
   1419.58801     659.4142     407.7502   1419.58801     659.4142     407.7502
   1419.57275     660.6522     407.8052   1419.57275     660.6522     407.8052
   1419.55750     659.9083     407.4300   1419.55750     659.9083     407.4300
   1419.54224     659.8560     407.0973   1419.54224     659.8560     407.0973
   1419.52698     660.9163     406.8965   1419.52698     660.9163     406.8965
   1419.51172     659.9739     407.1296   1419.51172     659.9739     407.1296
   1419.49646     661.9360     406.5365   1419.49646     661.9360     406.5365
   1419.48120     661.7059     406.5685   1419.48120     661.7059     406.5685
   1419.46594     661.8711     406.1533   1419.46594     661.8711     406.1533
   1419.45068     662.5231     406.2671   1419.45068     662.5231     406.2671
   1419.43542     661.9353     405.3478   1419.43542     661.9353     405.3478
   1419.42017     662.3232     405.5782   1419.42017     662.3232     405.5782
   1419.40491     662.7472     405.4736   1419.40491     662.7472     405.4736
   1419.38965     663.9099     405.3914   1419.38965     663.9099     405.3914
   1419.37439     664.1250     405.8142   1419.37439     664.1250     405.8142
   1419.35913     664.8071     404.8504   1419.35913     664.8071     404.8504
   1419.34387     664.7142     405.6643   1419.34387     664.7142     405.6643
   1419.32861     664.2977     405.0179   1419.32861     664.2977     405.0179
   1419.31335     665.3356     404.5634   1419.31335     665.3356     404.5634
   1419.29810     666.2412     405.3557   1419.29810     666.2412     405.3557
   1419.28284     667.1288     405.3729   1419.28284     667.1288     405.3729
   1419.26758     666.7496     405.0862   1419.26758     666.7496     405.0862
   1419.25232     667.6359     405.1733   1419.25232     667.6359     405.1733
   1419.23706     668.3430     404.8742   1419.23706     668.3430     404.8742
   1419.22180     667.9423     404.9691   1419.22180     667.9423     404.9691
   1419.20654     668.4796     405.1714   1419.20654     668.4796     405.1714
   1419.19128     668.7841     404.9703   1419.19128     668.7841     404.9703
   1419.17603     669.2073     406.1832   1419.17603     669.2073     406.1832
   1419.16077     670.8516     405.4364   1419.16077     670.8516     405.4364
   1419.14551     670.6539     405.6852   1419.14551     670.6539     405.6852
   1419.13025     671.7850     405.3575   1419.13025     671.7850     405.3575
   1419.11499     672.4398     405.5476   1419.11499     672.4398     405.5476
   1419.09973     672.6064     405.8441   1419.09973     672.6064     405.8441
   1419.08447     674.2758     406.5064   1419.08447     674.2758     406.5064
   1419.06921     674.3143     405.9464   1419.06921     674.3143     405.9464
   1419.05396     674.8615     405.9600   1419.05396     674.8615     405.9600
   1419.03870     675.3153     406.2322   1419.03870     675.3153     406.2322
   1419.02344     676.8392     406.5431   1419.02344     676.8392     406.5431
   1419.00818     676.4098     406.8497   1419.00818     676.4098     406.8497
   1418.99292     676.4862     406.8118   1418.99292     676.4862     406.8118
   1418.97766     677.1590     407.4588   1418.97766     677.1590     407.4588
   1418.96240     677.9092     407.1014   1418.96240     677.9092     407.1014
   1418.94714     679.4402     407.8719   1418.94714     679.4402     407.8719
   1418.93188     681.1491     408.0925   1418.93188     681.1491     408.0925
   1418.91663     681.6486     408.0227   1418.91663     681.6486     408.0227
   1418.90137     682.2460     407.6592   1418.90137     682.2460     407.6592
   1418.88611     682.4616     408.5676   1418.88611     682.4616     408.5676
   1418.87085     683.3503     407.9801   1418.87085     683.3503     407.9801
   1418.85559     684.5630     409.0845   1418.85559     684.5630     409.0845
   1418.84033     685.2508     409.3865   1418.84033     685.2508     409.3865
   1418.82507     685.3590     409.6410   1418.82507     685.3590     409.6410
   1418.80981     685.7790     410.2121   1418.80981     685.7790     410.2121
   1418.79456     686.1569     410.0829   1418.79456     686.1569     410.0829
   1418.77930     687.8912     409.9503   1418.77930     687.8912     409.9503
   1418.76404     688.9998     411.0076   1418.76404     688.9998     411.0076
   1418.74878     689.3893     411.0413   1418.74878     689.3893     411.0413
   1418.73352     690.9420     411.2082   1418.73352     690.9420     411.2082
   1418.71826     691.6088     412.1282   1418.71826     691.6088     412.1282
   1418.70300     691.7512     412.2093   1418.70300     691.7512     412.2093
   1418.68774     692.3419     412.0263   1418.68774     692.3419     412.0263
   1418.67249     693.3976     413.2613   1418.67249     693.3976     413.2613
   1418.65723     694.3755     413.2159   1418.65723     694.3755     413.2159
   1418.64197     696.5172     413.3271   1418.64197     696.5172     413.3271
   1418.62671     695.8020     414.1992   1418.62671     695.8020     414.1992
   1418.61145     697.7053     414.5201   1418.61145     697.7053     414.5201
   1418.59619     699.2422     415.1181   1418.59619     699.2422     415.1181
   1418.58093     698.7162     414.4453   1418.58093     698.7162     414.4453
   1418.56567     701.1544     415.5458   1418.56567     701.1544     415.5458
   1418.55042     701.6121     415.5748   1418.55042     701.6121     415.5748
   1418.53516     702.2396     416.1552   1418.53516     702.2396     416.1552
   1418.51990     702.1485     417.4697   1418.51990     702.1485     417.4697
   1418.50464     704.2878     417.9944   1418.50464     704.2878     417.9944
   1418.48938     705.7296     418.4503   1418.48938     705.7296     418.4503
   1418.47412     706.2089     418.3669   1418.47412     706.2089     418.3669
   1418.45886     708.1124     418.9717   1418.45886     708.1124     418.9717
   1418.44360     708.1870     419.9344   1418.44360     708.1870     419.9344
   1418.42834     709.1182     419.6054   1418.42834     709.1182     419.6054
   1418.41309     709.1753     419.9283   1418.41309     709.1753     419.9283
   1418.39783     710.8517     421.0302   1418.39783     710.8517     421.0302
   1418.38257     712.9296     421.6812   1418.38257     712.9296     421.6812
   1418.36731     713.4632     421.7169   1418.36731     713.4632     421.7169
   1418.35205     713.3810     422.1255   1418.35205     713.3810     422.1255
   1418.33679     715.8096     423.2951   1418.33679     715.8096     423.2951
   1418.32153     717.7491     423.9186   1418.32153     717.7491     423.9186
   1418.30627     717.1917     424.1399   1418.30627     717.1917     424.1399
   1418.29102     718.6331     423.9217   1418.29102     718.6331     423.9217
   1418.27576     720.2502     424.9039   1418.27576     720.2502     424.9039
   1418.26050     720.2472     425.8774   1418.26050     720.2472     425.8774
   1418.24524     722.4375     426.4890   1418.24524     722.4375     426.4890
   1418.22998     722.3406     426.5982   1418.22998     722.3406     426.5982
   1418.21472     723.8071     427.0488   1418.21472     723.8071     427.0488
   1418.19946     725.4244     428.2997   1418.19946     725.4244     428.2997
   1418.18420     726.3185     428.3661   1418.18420     726.3185     428.3661
   1418.16895     727.1598     429.7148   1418.16895     727.1598     429.7148
   1418.15369     728.0175     430.1137   1418.15369     728.0175     430.1137
   1418.13843     729.5193     430.2332   1418.13843     729.5193     430.2332
   1418.12317     729.5419     431.4452   1418.12317     729.5419     431.4452
   1418.10791     731.7794     431.4330   1418.10791     731.7794     431.4330
   1418.09265     733.8366     432.2154   1418.09265     733.8366     432.2154
   1418.07739     734.4700     432.5873   1418.07739     734.4700     432.5873
   1418.06213     735.2857     433.7661   1418.06213     735.2857     433.7661
   1418.04688     738.1561     434.3450   1418.04688     738.1561     434.3450
   1418.03162     738.9545     435.1222   1418.03162     738.9545     435.1222
   1418.01636     738.7065     436.0015   1418.01636     738.7065     436.0015
   1418.00110     739.6252     436.0983   1418.00110     739.6252     436.0983
   1417.98584     742.0488     437.2960   1417.98584     742.0488     437.2960
   1417.97058     742.7114     437.2959   1417.97058     742.7114     437.2959
   1417.95532     744.4490     438.4760   1417.95532     744.4490     438.4760
   1417.94006     744.2908     438.9868   1417.94006     744.2908     438.9868
   1417.92480     745.4030     439.4467   1417.92480     745.4030     439.4467
   1417.90955     747.1276     440.9057   1417.90955     747.1276     440.9057
   1417.89429     748.7232     440.5932   1417.89429     748.7232     440.5932
   1417.87903     749.8455     441.2268   1417.87903     749.8455     441.2268
   1417.86377     750.1931     441.5531   1417.86377     750.1931     441.5531
   1417.84851     752.3167     442.3959   1417.84851     752.3167     442.3959
   1417.83325     754.2651     443.8258   1417.83325     754.2651     443.8258
   1417.81799     755.0500     443.7931   1417.81799     755.0500     443.7931
   1417.80273     756.6032     444.6765   1417.80273     756.6032     444.6765
   1417.78748     757.1733     445.1635   1417.78748     757.1733     445.1635
   1417.77222     759.2587     446.4702   1417.77222     759.2587     446.4702
   1417.75696     759.6010     447.0630   1417.75696     759.6010     447.0630
   1417.74170     760.0490     447.5584   1417.74170     760.0490     447.5584
   1417.72644     761.9351     448.5803   1417.72644     761.9351     448.5803
   1417.71118     762.8123     449.3046   1417.71118     762.8123     449.3046
   1417.69592     763.7971     449.3683   1417.69592     763.7971     449.3683
   1417.68066     764.6819     450.1735   1417.68066     764.6819     450.1735
   1417.66541     766.1806     451.6234   1417.66541     766.1806     451.6234
   1417.65015     767.7554     451.8070   1417.65015     767.7554     451.8070
   1417.63489     768.5745     452.4933   1417.63489     768.5745     452.4933
   1417.61963     770.3131     453.2252   1417.61963     770.3131     453.2252
   1417.60437     770.8649     453.5609   1417.60437     770.8649     453.5609
   1417.58911     772.1919     454.6328   1417.58911     772.1919     454.6328
   1417.57385     773.5826     455.7406   1417.57385     773.5826     455.7406
   1417.55859     774.0112     456.1755   1417.55859     774.0112     456.1755
   1417.54333     776.6218     456.2333   1417.54333     776.6218     456.2333
   1417.52808     777.1410     457.8388   1417.52808     777.1410     457.8388
   1417.51282     778.2350     457.8091   1417.51282     778.2350     457.8091
   1417.49756     778.4783     459.8494   1417.49756     778.4783     459.8494
   1417.48230     780.9279     458.4509   1417.48230     780.9279     458.4509
   1417.46704     781.9337     459.6558   1417.46704     781.9337     459.6558
   1417.45178     781.5648     460.3922   1417.45178     781.5648     460.3922
   1417.43652     783.5134     460.8289   1417.43652     783.5134     460.8289
   1417.42126     784.0456     462.6411   1417.42126     784.0456     462.6411
   1417.40601     786.0684     463.0121   1417.40601     786.0684     463.0121
   1417.39075     788.0729     462.5569   1417.39075     788.0729     462.5569
   1417.37549     788.2126     464.3493   1417.37549     788.2126     464.3493
   1417.36023     788.0528     464.2200   1417.36023     788.0528     464.2200
   1417.34497     789.2851     464.7581   1417.34497     789.2851     464.7581
   1417.32971     791.1788     466.0247   1417.32971     791.1788     466.0247
   1417.31445     791.6274     467.2838   1417.31445     791.6274     467.2838
   1417.29919     792.7874     467.3580   1417.29919     792.7874     467.3580
   1417.28394     792.7825     468.1838   1417.28394     792.7825     468.1838
   1417.26868     795.0283     468.8690   1417.26868     795.0283     468.8690
   1417.25342     795.5625     468.8327   1417.25342     795.5625     468.8327
   1417.23816     797.7242     469.7123   1417.23816     797.7242     469.7123
   1417.22290     796.8588     470.1695   1417.22290     796.8588     470.1695
   1417.20764     798.1533     470.9893   1417.20764     798.1533     470.9893
   1417.19238     800.0344     470.9276   1417.19238     800.0344     470.9276
   1417.17712     800.9196     472.4894   1417.17712     800.9196     472.4894
   1417.16187     801.9774     472.1200   1417.16187     801.9774     472.1200
   1417.14661     802.2141     473.4700   1417.14661     802.2141     473.4700
   1417.13135     804.5475     474.5260   1417.13135     804.5475     474.5260
   1417.11609     805.0859     475.2567   1417.11609     805.0859     475.2567
   1417.10083     805.7365     474.2110   1417.10083     805.7365     474.2110
   1417.08557     806.1628     475.2442   1417.08557     806.1628     475.2442
   1417.07031     806.1512     476.0174   1417.07031     806.1512     476.0174
   1417.05505     807.0019     476.2881   1417.05505     807.0019     476.2881
   1417.03979     808.6537     477.2570   1417.03979     808.6537     477.2570
   1417.02454     807.1191     477.8635   1417.02454     807.1191     477.8635
   1417.00928     809.1190     477.7492   1417.00928     809.1190     477.7492
   1416.99402     810.3428     479.0186   1416.99402     810.3428     479.0186
   1416.97876     810.8655     478.9608   1416.97876     810.8655     478.9608
   1416.96350     811.9400     479.6020   1416.96350     811.9400     479.6020
   1416.94824     811.5805     480.1027   1416.94824     811.5805     480.1027
   1416.93298     812.4354     480.5388   1416.93298     812.4354     480.5388
   1416.91772     814.2739     479.8616   1416.91772     814.2739     479.8616
   1416.90247     814.0997     480.3801   1416.90247     814.0997     480.3801
   1416.88721     815.1767     481.4292   1416.88721     815.1767     481.4292
   1416.87195     815.0605     481.5624   1416.87195     815.0605     481.5624
   1416.85669     816.0940     482.0202   1416.85669     816.0940     482.0202
   1416.84143     816.1799     482.7715   1416.84143     816.1799     482.7715
   1416.82617     817.1366     482.9685   1416.82617     817.1366     482.9685
   1416.81091     818.2670     483.4402   1416.81091     818.2670     483.4402
   1416.79565     817.5526     483.7043   1416.79565     817.5526     483.7043
   1416.78040     818.5036     483.8162   1416.78040     818.5036     483.8162
   1416.76514     817.9797     484.6821   1416.76514     817.9797     484.6821
   1416.74988     819.3837     484.2816   1416.74988     819.3837     484.2816
   1416.73462     819.0983     485.0965   1416.73462     819.0983     485.0965
   1416.71936     821.5992     485.2520   1416.71936     821.5992     485.2520
   1416.70410     821.1318     484.6747   1416.70410     821.1318     484.6747
   1416.68884     822.4794     485.2401   1416.68884     822.4794     485.2401
   1416.67358     820.4011     485.8402   1416.67358     820.4011     485.8402
   1416.65833     821.2086     486.1074   1416.65833     821.2086     486.1074
   1416.64307     821.0872     486.4887   1416.64307     821.0872     486.4887
   1416.62781     821.3622     486.8399   1416.62781     821.3622     486.8399
   1416.61255     822.5197     486.2414   1416.61255     822.5197     486.2414
   1416.59729     821.2540     487.0157   1416.59729     821.2540     487.0157
   1416.58203     822.0311     486.9501   1416.58203     822.0311     486.9501
   1416.56677     821.7532     486.6031   1416.56677     821.7532     486.6031
   1416.55151     823.1681     486.7718   1416.55151     823.1681     486.7718
   1416.53625     822.9777     487.0971   1416.53625     822.9777     487.0971
   1416.52100     822.5120     487.7373   1416.52100     822.5120     487.7373
   1416.50574     822.1821     487.0223   1416.50574     822.1821     487.0223
   1416.49048     822.5684     487.0512   1416.49048     822.5684     487.0512
   1416.47522     823.0479     487.5094   1416.47522     823.0479     487.5094
   1416.45996     822.8649     487.2833   1416.45996     822.8649     487.2833
   1416.44470     821.2281     487.2775   1416.44470     821.2281     487.2775
   1416.42944     823.1730     487.1221   1416.42944     823.1730     487.1221
   1416.41418     823.2094     487.3541   1416.41418     823.2094     487.3541
   1416.39893     822.1261     487.5447   1416.39893     822.1261     487.5447
   1416.38367     821.2482     486.8413   1416.38367     821.2482     486.8413
   1416.36841     823.3288     487.4704   1416.36841     823.3288     487.4704
   1416.35315     821.9761     487.5513   1416.35315     821.9761     487.5513
   1416.33789     822.0879     487.8021   1416.33789     822.0879     487.8021
   1416.32263     822.7417     486.8188   1416.32263     822.7417     486.8188
   1416.30737     821.9932     486.5941   1416.30737     821.9932     486.5941
   1416.29211     821.1508     487.3553   1416.29211     821.1508     487.3553
   1416.27686     820.4157     487.5517   1416.27686     820.4157     487.5517
   1416.26160     820.6604     487.5058   1416.26160     820.6604     487.5058
   1416.24634     821.8412     487.4978   1416.24634     821.8412     487.4978
   1416.23108     820.4842     485.9689   1416.23108     820.4842     485.9689
   1416.21582     819.9694     486.9829   1416.21582     819.9694     486.9829
   1416.20056     819.3505     486.1355   1416.20056     819.3505     486.1355
   1416.18530     818.8417     485.9961   1416.18530     818.8417     485.9961
   1416.17004     818.7081     486.0172   1416.17004     818.7081     486.0172
   1416.15479     818.5483     487.1584   1416.15479     818.5483     487.1584
   1416.13953     816.1140     486.3113   1416.13953     816.1140     486.3113
   1416.12427     818.4228     485.4301   1416.12427     818.4228     485.4301
   1416.10901     817.7266     485.6465   1416.10901     817.7266     485.6465
   1416.09375     815.1877     485.4859   1416.09375     815.1877     485.4859
   1416.07849     814.9731     485.5274   1416.07849     814.9731     485.5274
   1416.06323     814.2946     484.7146   1416.06323     814.2946     484.7146
   1416.04797     815.1752     485.4084   1416.04797     815.1752     485.4084
   1416.03271     813.8354     484.8604   1416.03271     813.8354     484.8604
   1416.01746     813.7335     484.5255   1416.01746     813.7335     484.5255
   1416.00220     813.5045     484.2942   1416.00220     813.5045     484.2942
   1415.98694     812.5339     484.3286   1415.98694     812.5339     484.3286
   1415.97168     812.7179     483.0077   1415.97168     812.7179     483.0077
   1415.95642     811.6134     484.0931   1415.95642     811.6134     484.0931
   1415.94116     811.2504     483.4177   1415.94116     811.2504     483.4177
   1415.92590     810.0131     483.9136   1415.92590     810.0131     483.9136
   1415.91064     808.9133     483.1854   1415.91064     808.9133     483.1854
   1415.89539     808.6735     483.2230   1415.89539     808.6735     483.2230
   1415.88013     808.4202     482.7414   1415.88013     808.4202     482.7414
   1415.86487     807.3927     481.7766   1415.86487     807.3927     481.7766
   1415.84961     806.9655     482.4635   1415.84961     806.9655     482.4635
   1415.83435     805.3311     482.7363   1415.83435     805.3311     482.7363
   1415.81909     804.6014     481.8780   1415.81909     804.6014     481.8780
   1415.80383     804.6891     481.6624   1415.80383     804.6891     481.6624
   1415.78857     802.3646     480.9017   1415.78857     802.3646     480.9017
   1415.77332     803.6086     481.3651   1415.77332     803.6086     481.3651
   1415.75806     802.1934     480.7274   1415.75806     802.1934     480.7274
   1415.74280     801.6016     480.7930   1415.74280     801.6016     480.7930
   1415.72754     800.0723     480.8573   1415.72754     800.0723     480.8573
   1415.71228     798.2868     480.9113   1415.71228     798.2868     480.9113
   1415.69702     799.7194     480.2747   1415.69702     799.7194     480.2747
   1415.68176     798.1955     480.3673   1415.68176     798.1955     480.3673
   1415.66650     796.4723     479.5248   1415.66650     796.4723     479.5248
   1415.65125     796.8007     480.1129   1415.65125     796.8007     480.1129
   1415.63599     796.4195     478.8661   1415.63599     796.4195     478.8661
   1415.62073     794.1987     478.6139   1415.62073     794.1987     478.6139
   1415.60547     793.2855     477.9744   1415.60547     793.2855     477.9744
   1415.59021     792.7438     478.1414   1415.59021     792.7438     478.1414
   1415.57495     791.9095     477.6942   1415.57495     791.9095     477.6942
   1415.55969     791.4337     476.7571   1415.55969     791.4337     476.7571
   1415.54443     788.4636     476.5849   1415.54443     788.4636     476.5849
   1415.52917     787.1922     476.5088   1415.52917     787.1922     476.5088
   1415.51392     785.9310     475.8437   1415.51392     785.9310     475.8437
   1415.49866     784.0127     476.8143   1415.49866     784.0127     476.8143
   1415.48340     785.4802     476.2200   1415.48340     785.4802     476.2200
   1415.46814     783.4825     475.0787   1415.46814     783.4825     475.0787
   1415.45288     782.0056     475.2496   1415.45288     782.0056     475.2496
   1415.43762     781.9966     474.3796   1415.43762     781.9966     474.3796
   1415.42236     779.4828     474.8602   1415.42236     779.4828     474.8602
   1415.40710     779.2173     474.9850   1415.40710     779.2173     474.9850
   1415.39185     778.1653     474.1170   1415.39185     778.1653     474.1170
   1415.37659     776.5251     473.4362   1415.37659     776.5251     473.4362
   1415.36133     774.9866     472.9720   1415.36133     774.9866     472.9720
   1415.34607     773.0241     472.7401   1415.34607     773.0241     472.7401
   1415.33081     771.4113     472.3758   1415.33081     771.4113     472.3758
   1415.31555     772.6653     472.0237   1415.31555     772.6653     472.0237
   1415.30029     769.3079     471.2644   1415.30029     769.3079     471.2644
   1415.28503     767.8305     471.6499   1415.28503     767.8305     471.6499
   1415.26978     767.1082     470.8855   1415.26978     767.1082     470.8855
   1415.25452     765.8015     469.9279   1415.25452     765.8015     469.9279
   1415.23926     765.4839     469.3896   1415.23926     765.4839     469.3896
   1415.22400     763.6075     469.4707   1415.22400     763.6075     469.4707
   1415.20874     762.7409     469.6947   1415.20874     762.7409     469.6947
   1415.19348     760.0828     467.9162   1415.19348     760.0828     467.9162
   1415.17822     758.5767     468.8210   1415.17822     758.5767     468.8210
   1415.16296     757.3343     467.4901   1415.16296     757.3343     467.4901
   1415.14771     755.6425     467.0307   1415.14771     755.6425     467.0307
   1415.13245     754.8003     466.5289   1415.13245     754.8003     466.5289
   1415.11719     752.1443     466.5262   1415.11719     752.1443     466.5262
   1415.10193     751.4675     466.0403   1415.10193     751.4675     466.0403
   1415.08667     749.6326     464.6268   1415.08667     749.6326     464.6268
   1415.07141     748.3121     464.7790   1415.07141     748.3121     464.7790
   1415.05615     746.6818     463.4993   1415.05615     746.6818     463.4993
   1415.04089     745.2340     463.1191   1415.04089     745.2340     463.1191
   1415.02563     743.2779     462.0991   1415.02563     743.2779     462.0991
   1415.01038     739.9319     462.3975   1415.01038     739.9319     462.3975
   1414.99512     737.4722     461.8215   1414.99512     737.4722     461.8215
   1414.97986     737.6075     461.8707   1414.97986     737.6075     461.8707
   1414.96460     735.1997     460.6676   1414.96460     735.1997     460.6676
   1414.94934     734.4840     459.4564   1414.94934     734.4840     459.4564
   1414.93408     731.9374     459.1082   1414.93408     731.9374     459.1082
   1414.91882     729.2190     458.5478   1414.91882     729.2190     458.5478
   1414.90356     729.1132     457.5182   1414.90356     729.1132     457.5182
   1414.88831     726.9579     457.3771   1414.88831     726.9579     457.3771
   1414.87305     724.8882     456.2606   1414.87305     724.8882     456.2606
   1414.85779     722.8082     456.4587   1414.85779     722.8082     456.4587
   1414.84253     721.5215     454.5669   1414.84253     721.5215     454.5669
   1414.82727     719.5408     454.6663   1414.82727     719.5408     454.6663
   1414.81201     717.3887     453.3369   1414.81201     717.3887     453.3369
   1414.79675     714.5262     452.5792   1414.79675     714.5262     452.5792
   1414.78149     713.6737     451.8021   1414.78149     713.6737     451.8021
   1414.76624     711.2927     451.4366   1414.76624     711.2927     451.4366
   1414.75098     708.4499     450.9658   1414.75098     708.4499     450.9658
   1414.73572     705.9701     449.6894   1414.73572     705.9701     449.6894
   1414.72046     703.9583     449.0571   1414.72046     703.9583     449.0571
   1414.70520     702.0824     447.1779   1414.70520     702.0824     447.1779
   1414.68994     700.0940     447.1891   1414.68994     700.0940     447.1891
   1414.67468     697.9343     446.6923   1414.67468     697.9343     446.6923
   1414.65942     695.0140     445.9989   1414.65942     695.0140     445.9989
   1414.64417     694.0322     445.0327   1414.64417     694.0322     445.0327
   1414.62891     691.1395     444.1844   1414.62891     691.1395     444.1844
   1414.61365     689.1825     443.0007   1414.61365     689.1825     443.0007
   1414.59839     686.3751     442.6733   1414.59839     686.3751     442.6733
   1414.58313     684.7980     441.0219   1414.58313     684.7980     441.0219
   1414.56787     681.0254     440.2469   1414.56787     681.0254     440.2469
   1414.55261     680.2045     439.6765   1414.55261     680.2045     439.6765
   1414.53735     677.0954     438.0695   1414.53735     677.0954     438.0695
   1414.52209     675.1393     436.6876   1414.52209     675.1393     436.6876
   1414.50684     671.8259     436.6186   1414.50684     671.8259     436.6186
   1414.49158     669.1609     435.8208   1414.49158     669.1609     435.8208
   1414.47632     667.5468     434.6421   1414.47632     667.5468     434.6421
   1414.46106     663.4763     433.2551   1414.46106     663.4763     433.2551
   1414.44580     661.9818     433.1136   1414.44580     661.9818     433.1136
   1414.43054     659.2875     431.3810   1414.43054     659.2875     431.3810
   1414.41528     657.3018     430.2751   1414.41528     657.3018     430.2751
   1414.40002     655.3521     429.0458   1414.40002     655.3521     429.0458
   1414.38477     651.6623     428.2740   1414.38477     651.6623     428.2740
   1414.36951     649.7601     426.8915   1414.36951     649.7601     426.8915
   1414.35425     645.6530     426.2110   1414.35425     645.6530     426.2110
   1414.33899     642.8956     424.4138   1414.33899     642.8956     424.4138
   1414.32373     641.2917     423.8820   1414.32373     641.2917     423.8820
   1414.30847     637.9094     423.2301   1414.30847     637.9094     423.2301
   1414.29321     635.9796     421.4778   1414.29321     635.9796     421.4778
   1414.27795     632.2535     419.9189   1414.27795     632.2535     419.9189
   1414.26270     630.4079     418.3986   1414.26270     630.4079     418.3986
   1414.24744     626.9950     417.6487   1414.24744     626.9950     417.6487
   1414.23218     624.2224     417.0633   1414.23218     624.2224     417.0633
   1414.21692     622.3054     414.7020   1414.21692     622.3054     414.7020
   1414.20166     618.6819     413.8830   1414.20166     618.6819     413.8830
   1414.18640     615.8161     412.3744   1414.18640     615.8161     412.3744
   1414.17114     612.4841     410.9883   1414.17114     612.4841     410.9883
   1414.15588     611.0634     409.9019   1414.15588     611.0634     409.9019
   1414.14062     607.4852     408.3853   1414.14062     607.4852     408.3853
   1414.12537     604.9056     407.7743   1414.12537     604.9056     407.7743
   1414.11011     602.1558     405.5307   1414.11011     602.1558     405.5307
   1414.09485     598.3275     405.5633   1414.09485     598.3275     405.5633
   1414.07959     596.8958     404.0034   1414.07959     596.8958     404.0034
   1414.06433     593.9254     402.4614   1414.06433     593.9254     402.4614
   1414.04907     590.1735     401.0345   1414.04907     590.1735     401.0345
   1414.03381     587.8292     399.6457   1414.03381     587.8292     399.6457
   1414.01855     585.9636     398.1465   1414.01855     585.9636     398.1465
   1414.00330     609.9666     404.4106   1414.00330     609.9666     404.4106
   1413.98804     580.7141     395.5017   1413.98804     580.7141     395.5017
   1413.97278     575.4935     394.5100   1413.97278     575.4935     394.5100
   1413.95752     572.8276     392.6070   1413.95752     572.8276     392.6070
   1413.94226     569.1524     391.5229   1413.94226     569.1524     391.5229
   1413.92700     566.3121     389.1385   1413.92700     566.3121     389.1385
   1413.91174     562.9048     388.4510   1413.91174     562.9048     388.4510
   1413.89648     560.1810     386.5840   1413.89648     560.1810     386.5840
   1413.88123     556.8127     384.7974   1413.88123     556.8127     384.7974
   1413.86597     553.1156     383.3422   1413.86597     553.1156     383.3422
   1413.85071     551.8730     382.2667   1413.85071     551.8730     382.2667
   1413.83545     548.2057     380.7322   1413.83545     548.2057     380.7322
   1413.82019     544.5903     379.3279   1413.82019     544.5903     379.3279
   1413.80493     541.7466     378.0697   1413.80493     541.7466     378.0697
   1413.78967     538.1377     376.2209   1413.78967     538.1377     376.2209
   1413.77441     535.8163     374.2880   1413.77441     535.8163     374.2880
   1413.75916     533.1121     373.6519   1413.75916     533.1121     373.6519
   1413.74390     529.0561     372.0740   1413.74390     529.0561     372.0740
   1413.72864     526.0226     370.8871   1413.72864     526.0226     370.8871
   1413.71338     523.8454     369.1375   1413.71338     523.8454     369.1375
   1413.69812     519.8474     366.7180   1413.69812     519.8474     366.7180
   1413.68286     516.8503     365.3865   1413.68286     516.8503     365.3865
   1413.66760     514.5484     364.1415   1413.66760     514.5484     364.1415
   1413.65234     511.0873     362.2684   1413.65234     511.0873     362.2684
   1413.63708     508.8865     361.0149   1413.63708     508.8865     361.0149
   1413.62183     504.6418     359.4377   1413.62183     504.6418     359.4377
   1413.60657     501.6786     357.8866   1413.60657     501.6786     357.8866
   1413.59131     499.5805     356.7958   1413.59131     499.5805     356.7958
   1413.57605     496.4546     354.4261   1413.57605     496.4546     354.4261
   1413.56079     493.6660     353.6731   1413.56079     493.6660     353.6731
   1413.54553     490.3491     351.5346   1413.54553     490.3491     351.5346
   1413.53027     487.3845     350.0549   1413.53027     487.3845     350.0549
   1413.51501     484.1483     348.3049   1413.51501     484.1483     348.3049
   1413.49976     480.9758     346.9338   1413.49976     480.9758     346.9338
   1413.48450     478.0779     345.5877   1413.48450     478.0779     345.5877
   1413.46924     475.8555     343.8344   1413.46924     475.8555     343.8344
   1413.45398     472.0285     342.4605   1413.45398     472.0285     342.4605
   1413.43872     469.0043     340.4937   1413.43872     469.0043     340.4937
   1413.42346     466.9705     339.5102   1413.42346     466.9705     339.5102
   1413.40820     464.3832     337.6969   1413.40820     464.3832     337.6969
   1413.39294     461.2170     336.4591   1413.39294     461.2170     336.4591
   1413.37769     457.8105     335.0644   1413.37769     457.8105     335.0644
   1413.36243     455.3436     333.4326   1413.36243     455.3436     333.4326
   1413.34717     452.3176     331.1194   1413.34717     452.3176     331.1194
   1413.33191     450.0929     329.9462   1413.33191     450.0929     329.9462
   1413.31665     447.2893     328.9373   1413.31665     447.2893     328.9373
   1413.30139     444.7305     326.7814   1413.30139     444.7305     326.7814
   1413.28613     441.8209     325.3401   1413.28613     441.8209     325.3401
   1413.27087     439.0956     323.6752   1413.27087     439.0956     323.6752
   1413.25562     436.7365     322.6067   1413.25562     436.7365     322.6067
   1413.24036     434.0300     321.2034   1413.24036     434.0300     321.2034
   1413.22510     431.8172     319.7662   1413.22510     431.8172     319.7662
   1413.20984     428.4687     317.8377   1413.20984     428.4687     317.8377
   1413.19458     426.4343     317.0216   1413.19458     426.4343     317.0216
   1413.17932     424.1113     315.4528   1413.17932     424.1113     315.4528
   1413.16406     421.5211     314.2438   1413.16406     421.5211     314.2438
   1413.14880     418.8589     312.5259   1413.14880     418.8589     312.5259
   1413.13354     417.3334     311.5922   1413.13354     417.3334     311.5922
   1413.11829     414.5944     310.2095   1413.11829     414.5944     310.2095
   1413.10303     411.4993     308.9529   1413.10303     411.4993     308.9529
   1413.08777     410.2249     307.2203   1413.08777     410.2249     307.2203
   1413.07251     407.2614     305.8448   1413.07251     407.2614     305.8448
   1413.05725     406.5949     304.5877   1413.05725     406.5949     304.5877
   1413.04199     403.1332     303.4251   1413.04199     403.1332     303.4251
   1413.02673     401.2049     302.3547   1413.02673     401.2049     302.3547
   1413.01147     398.9242     300.4933   1413.01147     398.9242     300.4933
   1412.99622     396.8809     299.6112   1412.99622     396.8809     299.6112
   1412.98096     394.8387     298.3327   1412.98096     394.8387     298.3327
   1412.96570     393.0515     296.9906   1412.96570     393.0515     296.9906
   1412.95044     390.9261     295.7823   1412.95044     390.9261     295.7823
   1412.93518     388.9351     295.1975   1412.93518     388.9351     295.1975
   1412.91992     387.5580     293.6880   1412.91992     387.5580     293.6880
   1412.90466     385.7874     292.4892   1412.90466     385.7874     292.4892
   1412.88940     383.4227     291.9189   1412.88940     383.4227     291.9189
   1412.87415     381.8056     290.8614   1412.87415     381.8056     290.8614
   1412.85889     380.8098     289.7053   1412.85889     380.8098     289.7053
   1412.84363     379.1684     289.2799   1412.84363     379.1684     289.2799
   1412.82837     377.0309     287.8061   1412.82837     377.0309     287.8061
   1412.81311     375.8833     286.2911   1412.81311     375.8833     286.2911
   1412.79785     373.9130     285.6472   1412.79785     373.9130     285.6472
   1412.78259     372.8993     285.4008   1412.78259     372.8993     285.4008
   1412.76733     371.6718     283.6824   1412.76733     371.6718     283.6824
   1412.75208     370.5376     283.0679   1412.75208     370.5376     283.0679
   1412.73682     369.1647     282.8062   1412.73682     369.1647     282.8062
   1412.72156     367.8261     281.9715   1412.72156     367.8261     281.9715
   1412.70630     366.5092     280.8416   1412.70630     366.5092     280.8416
   1412.69104     365.4559     280.2910   1412.69104     365.4559     280.2910
   1412.67578     363.7425     279.1930   1412.67578     363.7425     279.1930
   1412.66052     363.2396     279.0841   1412.66052     363.2396     279.0841
   1412.64526     362.5214     278.4763   1412.64526     362.5214     278.4763
   1412.63000     362.0448     277.7995   1412.63000     362.0448     277.7995
   1412.61475     360.6781     276.7559   1412.61475     360.6781     276.7559
   1412.59949     359.8174     276.7240   1412.59949     359.8174     276.7240
   1412.58423     358.9336     275.6168   1412.58423     358.9336     275.6168
   1412.56897     358.1557     276.0306   1412.56897     358.1557     276.0306
   1412.55371     358.1394     274.8570   1412.55371     358.1394     274.8570
   1412.53845     356.7751     274.6637   1412.53845     356.7751     274.6637
   1412.52319     356.7684     274.5025   1412.52319     356.7684     274.5025
   1412.50793     356.2029     273.8673   1412.50793     356.2029     273.8673
   1412.49268     355.2015     273.7138   1412.49268     355.2015     273.7138
   1412.47742     355.3028     273.3546   1412.47742     355.3028     273.3546
   1412.46216     355.0516     273.3610   1412.46216     355.0516     273.3610
   1412.44690     354.5896     272.6357   1412.44690     354.5896     272.6357
   1412.43164     354.2812     272.7296   1412.43164     354.2812     272.7296
   1412.41638     354.5867     272.5909   1412.41638     354.5867     272.5909
   1412.40112     354.4050     272.7575   1412.40112     354.4050     272.7575
   1412.38586     354.2429     272.9946   1412.38586     354.2429     272.9946
   1412.37061     354.4492     272.7437   1412.37061     354.4492     272.7437
   1412.35535     354.2614     273.0354   1412.35535     354.2614     273.0354
   1412.34009     353.8854     272.3514   1412.34009     353.8854     272.3514
   1412.32483     354.6475     272.9525   1412.32483     354.6475     272.9525
   1412.30957     354.9885     273.0717   1412.30957     354.9885     273.0717
   1412.29431     354.5218     272.7938   1412.29431     354.5218     272.7938
   1412.27905     355.3300     273.5779   1412.27905     355.3300     273.5779
   1412.26379     355.0510     273.7553   1412.26379     355.0510     273.7553
   1412.24854     355.5815     274.2009   1412.24854     355.5815     274.2009
   1412.23328     356.2830     274.3087   1412.23328     356.2830     274.3087
   1412.21802     356.6545     274.8320   1412.21802     356.6545     274.8320
   1412.20276     357.8221     274.8193   1412.20276     357.8221     274.8193