#     FILENAME=!Skynet_57528_lach-cc-223_20637_21035.cyb.fits
#     BASENAME=Skynet_57528_lach-cc-223_20637_21035
#     SRC_NAME=lach-cc-223
#     OBSERVER=ccmadison16_9505
#     DATE_OBS=2016-05-20T19:46:19.000
#        OBSID=20637
#      SCANNUM=21035
#          MJD=57528.8249
#          UTC=71268
#     SCANTYPE=track
#     DATAMODE=HIRES
#     TUNEFREQ=1420.0000
# Actual_FREQ1=1420.0000
# Actual_FREQ2=1420.0000
#    LO1Tuning=6870.000
#     RFFILTER=1355_1435
#        OBSBW=-15.6250
#        NCHAN=1024 
#        FOCUS=37.0709
#           RA=07:09:56.84
#          DEC=-08:56:58.98
#      RA(hrs)=7.165800
#     DEC(deg)=-8.949700
#    AZIM(deg)=163.561
#    ELEV(deg)=41.119
#     IFattens=10.00, 9.00
#      WARNING=None
#    TCAL_XL1=7.9635
#    TCAL_YR1=9.1340
#    TCAL_XL2=7.9635
#    TCAL_YR2=9.1340
#     TRX_XL1=11.7060
#     TRX_YR1=11.7060
#     TRX_XL2=11.7060
#     TRX_YR2=11.7060
#        TAVE=1.0000
#Freq1(MHz)          XL1          YR1  Freq2(MHz)          XL2          YR2 

   1427.81250     354.6919     269.3733   1427.81250     354.6919     269.3733
   1427.79724     355.6209     270.4343   1427.79724     355.6209     270.4343
   1427.78198     356.4467     270.3411   1427.78198     356.4467     270.3411
   1427.76672     356.7623     270.9211   1427.76672     356.7623     270.9211
   1427.75146     357.8706     271.7942   1427.75146     357.8706     271.7942
   1427.73621     358.4154     272.1620   1427.73621     358.4154     272.1620
   1427.72095     359.6569     272.8575   1427.72095     359.6569     272.8575
   1427.70569     360.1772     273.5681   1427.70569     360.1772     273.5681
   1427.69043     360.9872     274.5146   1427.69043     360.9872     274.5146
   1427.67517     362.1054     275.5881   1427.67517     362.1054     275.5881
   1427.65991     363.7766     275.9074   1427.65991     363.7766     275.9074
   1427.64465     364.5068     276.9018   1427.64465     364.5068     276.9018
   1427.62939     366.2200     277.6272   1427.62939     366.2200     277.6272
   1427.61414     367.7003     279.1517   1427.61414     367.7003     279.1517
   1427.59888     368.5709     279.3633   1427.59888     368.5709     279.3633
   1427.58362     369.9783     280.2418   1427.58362     369.9783     280.2418
   1427.56836     371.5433     281.6772   1427.56836     371.5433     281.6772
   1427.55310     372.9542     283.1731   1427.55310     372.9542     283.1731
   1427.53784     374.1362     284.0939   1427.53784     374.1362     284.0939
   1427.52258     375.6520     285.0608   1427.52258     375.6520     285.0608
   1427.50732     377.3044     286.6324   1427.50732     377.3044     286.6324
   1427.49207     378.9391     287.5909   1427.49207     378.9391     287.5909
   1427.47681     380.3648     289.0703   1427.47681     380.3648     289.0703
   1427.46155     382.3657     290.3127   1427.46155     382.3657     290.3127
   1427.44629     384.1719     291.1349   1427.44629     384.1719     291.1349
   1427.43103     385.1293     292.9492   1427.43103     385.1293     292.9492
   1427.41577     387.7175     294.1539   1427.41577     387.7175     294.1539
   1427.40051     389.3295     295.1938   1427.40051     389.3295     295.1938
   1427.38525     391.3227     297.1764   1427.38525     391.3227     297.1764
   1427.37000     393.8464     298.4245   1427.37000     393.8464     298.4245
   1427.35474     395.9358     300.4927   1427.35474     395.9358     300.4927
   1427.33948     397.1491     301.6716   1427.33948     397.1491     301.6716
   1427.32422     400.0446     303.4108   1427.32422     400.0446     303.4108
   1427.30896     401.6570     304.9470   1427.30896     401.6570     304.9470
   1427.29370     403.5085     306.5267   1427.29370     403.5085     306.5267
   1427.27844     405.7499     307.8745   1427.27844     405.7499     307.8745
   1427.26318     407.9277     309.4192   1427.26318     407.9277     309.4192
   1427.24792     410.4687     312.0690   1427.24792     410.4687     312.0690
   1427.23267     412.3471     313.6020   1427.23267     412.3471     313.6020
   1427.21741     414.8359     315.2592   1427.21741     414.8359     315.2592
   1427.20215     416.6348     317.5356   1427.20215     416.6348     317.5356
   1427.18689     419.4297     318.9046   1427.18689     419.4297     318.9046
   1427.17163     421.6514     320.5209   1427.17163     421.6514     320.5209
   1427.15637     424.3502     322.9018   1427.15637     424.3502     322.9018
   1427.14111     427.0262     324.4105   1427.14111     427.0262     324.4105
   1427.12585     428.8693     326.8215   1427.12585     428.8693     326.8215
   1427.11060     431.0717     328.9660   1427.11060     431.0717     328.9660
   1427.09534     434.2237     330.3163   1427.09534     434.2237     330.3163
   1427.08008     437.0053     332.6945   1427.08008     437.0053     332.6945
   1427.06482     439.5217     334.4247   1427.06482     439.5217     334.4247
   1427.04956     440.8242     336.3467   1427.04956     440.8242     336.3467
   1427.03430     444.6805     338.8074   1427.03430     444.6805     338.8074
   1427.01904     446.1915     341.3986   1427.01904     446.1915     341.3986
   1427.00378     449.2359     343.3013   1427.00378     449.2359     343.3013
   1426.98853     452.1314     345.4311   1426.98853     452.1314     345.4311
   1426.97327     454.4476     347.7034   1426.97327     454.4476     347.7034
   1426.95801     457.7642     349.9132   1426.95801     457.7642     349.9132
   1426.94275     460.2085     352.2226   1426.94275     460.2085     352.2226
   1426.92749     462.3163     354.0285   1426.92749     462.3163     354.0285
   1426.91223     465.7317     356.9041   1426.91223     465.7317     356.9041
   1426.89697     467.9281     358.1453   1426.89697     467.9281     358.1453
   1426.88171     471.0123     360.9527   1426.88171     471.0123     360.9527
   1426.86646     473.5828     363.4097   1426.86646     473.5828     363.4097
   1426.85120     475.6988     365.4271   1426.85120     475.6988     365.4271
   1426.83594     479.3513     367.5846   1426.83594     479.3513     367.5846
   1426.82068     482.0156     370.0484   1426.82068     482.0156     370.0484
   1426.80542     484.4252     372.9099   1426.80542     484.4252     372.9099
   1426.79016     487.4523     374.9321   1426.79016     487.4523     374.9321
   1426.77490     490.1055     377.1817   1426.77490     490.1055     377.1817
   1426.75964     492.0455     379.8979   1426.75964     492.0455     379.8979
   1426.74438     496.2877     381.9745   1426.74438     496.2877     381.9745
   1426.72913     498.3517     384.6005   1426.72913     498.3517     384.6005
   1426.71387     500.7343     387.0077   1426.71387     500.7343     387.0077
   1426.69861     503.8707     389.2128   1426.69861     503.8707     389.2128
   1426.68335     506.5478     392.0967   1426.68335     506.5478     392.0967
   1426.66809     509.2747     394.5373   1426.66809     509.2747     394.5373
   1426.65283     512.1602     397.0552   1426.65283     512.1602     397.0552
   1426.63757     514.8931     399.2944   1426.63757     514.8931     399.2944
   1426.62231     519.3655     402.3250   1426.62231     519.3655     402.3250
   1426.60706     520.5420     403.6373   1426.60706     520.5420     403.6373
   1426.59180     524.0829     406.7098   1426.59180     524.0829     406.7098
   1426.57654     525.5510     408.7873   1426.57654     525.5510     408.7873
   1426.56128     528.4864     411.2670   1426.56128     528.4864     411.2670
   1426.54602     531.0237     413.8803   1426.54602     531.0237     413.8803
   1426.53076     534.1587     416.6898   1426.53076     534.1587     416.6898
   1426.51550     536.5879     419.0370   1426.51550     536.5879     419.0370
   1426.50024     539.5878     422.0125   1426.50024     539.5878     422.0125
   1426.48499     541.5582     423.8796   1426.48499     541.5582     423.8796
   1426.46973     544.4884     426.9624   1426.46973     544.4884     426.9624
   1426.45447     547.8392     429.6367   1426.45447     547.8392     429.6367
   1426.43921     549.9741     432.3183   1426.43921     549.9741     432.3183
   1426.42395     553.2990     433.9694   1426.42395     553.2990     433.9694
   1426.40869     555.1316     436.6914   1426.40869     555.1316     436.6914
   1426.39343     559.1943     439.1587   1426.39343     559.1943     439.1587
   1426.37817     561.8350     442.1695   1426.37817     561.8350     442.1695
   1426.36292     563.4571     444.1192   1426.36292     563.4571     444.1192
   1426.34766     566.5423     446.5108   1426.34766     566.5423     446.5108
   1426.33240     568.7479     449.4022   1426.33240     568.7479     449.4022
   1426.31714     571.0767     451.7549   1426.31714     571.0767     451.7549
   1426.30188     573.6519     453.6265   1426.30188     573.6519     453.6265
   1426.28662     576.5961     456.6836   1426.28662     576.5961     456.6836
   1426.27136     578.8088     458.7614   1426.27136     578.8088     458.7614
   1426.25610     580.9942     461.8403   1426.25610     580.9942     461.8403
   1426.24084     583.6833     463.8629   1426.24084     583.6833     463.8629
   1426.22559     585.8295     467.2828   1426.22559     585.8295     467.2828
   1426.21033     587.9678     469.4153   1426.21033     587.9678     469.4153
   1426.19507     591.2437     471.1617   1426.19507     591.2437     471.1617
   1426.17981     594.1187     474.0334   1426.17981     594.1187     474.0334
   1426.16455     596.1813     476.3901   1426.16455     596.1813     476.3901
   1426.14929     597.6196     478.3102   1426.14929     597.6196     478.3102
   1426.13403     600.4691     481.4638   1426.13403     600.4691     481.4638
   1426.11877     603.3179     483.5781   1426.11877     603.3179     483.5781
   1426.10352     604.9189     485.4715   1426.10352     604.9189     485.4715
   1426.08826     607.5296     488.0589   1426.08826     607.5296     488.0589
   1426.07300     609.8301     490.1673   1426.07300     609.8301     490.1673
   1426.05774     611.6980     492.6670   1426.05774     611.6980     492.6670
   1426.04248     614.4984     495.1631   1426.04248     614.4984     495.1631
   1426.02722     615.9355     498.3091   1426.02722     615.9355     498.3091
   1426.01196     617.1898     499.4257   1426.01196     617.1898     499.4257
   1425.99670     620.1083     502.2833   1425.99670     620.1083     502.2833
   1425.98145     621.5906     504.5687   1425.98145     621.5906     504.5687
   1425.96619     623.8840     506.8518   1425.96619     623.8840     506.8518
   1425.95093     626.1580     509.3162   1425.95093     626.1580     509.3162
   1425.93567     628.0927     511.2850   1425.93567     628.0927     511.2850
   1425.92041     630.3891     512.8135   1425.92041     630.3891     512.8135
   1425.90515     631.1909     515.6009   1425.90515     631.1909     515.6009
   1425.88989     634.6481     518.5629   1425.88989     634.6481     518.5629
   1425.87463     636.4373     519.5921   1425.87463     636.4373     519.5921
   1425.85938     638.3077     522.4435   1425.85938     638.3077     522.4435
   1425.84412     640.5209     524.1963   1425.84412     640.5209     524.1963
   1425.82886     641.6089     526.4109   1425.82886     641.6089     526.4109
   1425.81360     644.4335     529.2236   1425.81360     644.4335     529.2236
   1425.79834     645.3939     530.9914   1425.79834     645.3939     530.9914
   1425.78308     646.9059     534.2496   1425.78308     646.9059     534.2496
   1425.76782     648.6061     535.6854   1425.76782     648.6061     535.6854
   1425.75256     650.9338     537.7277   1425.75256     650.9338     537.7277
   1425.73730     651.7615     539.8097   1425.73730     651.7615     539.8097
   1425.72205     653.3104     542.1695   1425.72205     653.3104     542.1695
   1425.70679     654.8705     543.8226   1425.70679     654.8705     543.8226
   1425.69153     655.6137     545.9332   1425.69153     655.6137     545.9332
   1425.67627     656.9108     547.0232   1425.67627     656.9108     547.0232
   1425.66101     660.2987     549.8571   1425.66101     660.2987     549.8571
   1425.64575     661.3945     552.4426   1425.64575     661.3945     552.4426
   1425.63049     661.6862     553.7225   1425.63049     661.6862     553.7225
   1425.61523     665.0215     556.5328   1425.61523     665.0215     556.5328
   1425.59998     666.2794     557.4992   1425.59998     666.2794     557.4992
   1425.58472     666.8058     560.7341   1425.58472     666.8058     560.7341
   1425.56946     667.8679     561.8578   1425.56946     667.8679     561.8578
   1425.55420     668.2398     563.4297   1425.55420     668.2398     563.4297
   1425.53894     669.9158     566.3101   1425.53894     669.9158     566.3101
   1425.52368     670.5247     567.5944   1425.52368     670.5247     567.5944
   1425.50842     673.5376     570.3068   1425.50842     673.5376     570.3068
   1425.49316     674.2444     571.0071   1425.49316     674.2444     571.0071
   1425.47791     674.9816     573.8938   1425.47791     674.9816     573.8938
   1425.46265     677.3503     574.5779   1425.46265     677.3503     574.5779
   1425.44739     678.2012     577.5118   1425.44739     678.2012     577.5118
   1425.43213     678.6113     578.2429   1425.43213     678.6113     578.2429
   1425.41687     680.7205     582.6661   1425.41687     680.7205     582.6661
   1425.40161     681.2047     582.0189   1425.40161     681.2047     582.0189
   1425.38635     682.1531     583.4949   1425.38635     682.1531     583.4949
   1425.37109     682.8348     585.7506   1425.37109     682.8348     585.7506
   1425.35583     683.7014     586.9113   1425.35583     683.7014     586.9113
   1425.34058     684.7294     589.7829   1425.34058     684.7294     589.7829
   1425.32532     686.0453     591.6107   1425.32532     686.0453     591.6107
   1425.31006     686.7167     592.4812   1425.31006     686.7167     592.4812
   1425.29480     688.1185     595.0626   1425.29480     688.1185     595.0626
   1425.27954     688.3672     595.3446   1425.27954     688.3672     595.3446
   1425.26428     689.6887     597.6250   1425.26428     689.6887     597.6250
   1425.24902     690.4761     598.3000   1425.24902     690.4761     598.3000
   1425.23376     690.4842     600.4611   1425.23376     690.4842     600.4611
   1425.21851     692.1579     601.5776   1425.21851     692.1579     601.5776
   1425.20325     693.3071     602.6158   1425.20325     693.3071     602.6158
   1425.18799     693.1992     605.1064   1425.18799     693.1992     605.1064
   1425.17273     693.3329     605.6010   1425.17273     693.3329     605.6010
   1425.15747     694.5085     608.4846   1425.15747     694.5085     608.4846
   1425.14221     695.5592     609.7556   1425.14221     695.5592     609.7556
   1425.12695     695.7347     610.3571   1425.12695     695.7347     610.3571
   1425.11169     695.4227     612.6990   1425.11169     695.4227     612.6990
   1425.09644     696.5485     613.3414   1425.09644     696.5485     613.3414
   1425.08118     697.7563     614.9927   1425.08118     697.7563     614.9927
   1425.06592     697.7686     616.0746   1425.06592     697.7686     616.0746
   1425.05066     699.5071     616.6102   1425.05066     699.5071     616.6102
   1425.03540     699.7513     618.3270   1425.03540     699.7513     618.3270
   1425.02014     700.0601     620.0685   1425.02014     700.0601     620.0685
   1425.00488     700.8805     621.2848   1425.00488     700.8805     621.2848
   1424.98962     700.8818     621.6609   1424.98962     700.8818     621.6609
   1424.97437     700.9175     623.0039   1424.97437     700.9175     623.0039
   1424.95911     701.3164     625.2814   1424.95911     701.3164     625.2814
   1424.94385     701.4639     625.7823   1424.94385     701.4639     625.7823
   1424.92859     702.7902     626.7279   1424.92859     702.7902     626.7279
   1424.91333     703.5055     627.5841   1424.91333     703.5055     627.5841
   1424.89807     702.8898     628.9196   1424.89807     702.8898     628.9196
   1424.88281     703.1880     630.2225   1424.88281     703.1880     630.2225
   1424.86755     704.7459     631.4261   1424.86755     704.7459     631.4261
   1424.85229     704.7430     633.6049   1424.85229     704.7430     633.6049
   1424.83704     704.7200     634.1763   1424.83704     704.7200     634.1763
   1424.82178     704.0534     633.3748   1424.82178     704.0534     633.3748
   1424.80652     704.3689     636.1014   1424.80652     704.3689     636.1014
   1424.79126     705.5660     637.0945   1424.79126     705.5660     637.0945
   1424.77600     704.2332     637.6225   1424.77600     704.2332     637.6225
   1424.76074     705.8820     638.7932   1424.76074     705.8820     638.7932
   1424.74548     706.0418     638.7043   1424.74548     706.0418     638.7043
   1424.73022     706.0862     640.0786   1424.73022     706.0862     640.0786
   1424.71497     705.6187     641.2006   1424.71497     705.6187     641.2006
   1424.69971     706.7001     641.6230   1424.69971     706.7001     641.6230
   1424.68445     706.3496     643.5961   1424.68445     706.3496     643.5961
   1424.66919     706.1479     643.4882   1424.66919     706.1479     643.4882
   1424.65393     707.1404     644.3046   1424.65393     707.1404     644.3046
   1424.63867     706.0992     645.6225   1424.63867     706.0992     645.6225
   1424.62341     706.6464     647.3053   1424.62341     706.6464     647.3053
   1424.60815     705.9891     647.1447   1424.60815     705.9891     647.1447
   1424.59290     706.5675     646.5372   1424.59290     706.5675     646.5372
   1424.57764     706.5560     649.2373   1424.57764     706.5560     649.2373
   1424.56238     706.1245     648.9917   1424.56238     706.1245     648.9917
   1424.54712     707.9318     649.6924   1424.54712     707.9318     649.6924
   1424.53186     707.0266     651.2251   1424.53186     707.0266     651.2251
   1424.51660     706.8641     650.1085   1424.51660     706.8641     650.1085
   1424.50134     707.9859     651.5551   1424.50134     707.9859     651.5551
   1424.48608     707.0071     652.8234   1424.48608     707.0071     652.8234
   1424.47083     707.7693     653.1962   1424.47083     707.7693     653.1962
   1424.45557     707.7172     653.0554   1424.45557     707.7172     653.0554
   1424.44031     706.8739     653.9979   1424.44031     706.8739     653.9979
   1424.42505     707.6982     653.8594   1424.42505     707.6982     653.8594
   1424.40979     706.7885     655.0590   1424.40979     706.7885     655.0590
   1424.39453     706.0604     656.2463   1424.39453     706.0604     656.2463
   1424.37927     707.7521     656.1119   1424.37927     707.7521     656.1119
   1424.36401     706.3989     656.6340   1424.36401     706.3989     656.6340
   1424.34875     706.4141     657.0806   1424.34875     706.4141     657.0806
   1424.33350     706.2966     656.6708   1424.33350     706.2966     656.6708
   1424.31824     706.4658     657.7494   1424.31824     706.4658     657.7494
   1424.30298     705.7546     657.1372   1424.30298     705.7546     657.1372
   1424.28772     706.3153     657.1260   1424.28772     706.3153     657.1260
   1424.27246     706.2966     657.4191   1424.27246     706.2966     657.4191
   1424.25720     706.5061     658.2302   1424.25720     706.5061     658.2302
   1424.24194     706.8249     658.6413   1424.24194     706.8249     658.6413
   1424.22668     706.7126     659.8032   1424.22668     706.7126     659.8032
   1424.21143     705.9773     659.0289   1424.21143     705.9773     659.0289
   1424.19617     706.6894     659.2838   1424.19617     706.6894     659.2838
   1424.18091     704.4742     660.0432   1424.18091     704.4742     660.0432
   1424.16565     705.9159     659.7709   1424.16565     705.9159     659.7709
   1424.15039     706.0413     659.9315   1424.15039     706.0413     659.9315
   1424.13513     705.7324     660.8145   1424.13513     705.7324     660.8145
   1424.11987     705.1605     659.1540   1424.11987     705.1605     659.1540
   1424.10461     705.4004     660.1082   1424.10461     705.4004     660.1082
   1424.08936     704.5649     661.3176   1424.08936     704.5649     661.3176
   1424.07410     704.7271     660.8542   1424.07410     704.7271     660.8542
   1424.05884     704.2324     661.3553   1424.05884     704.2324     661.3553
   1424.04358     704.9016     661.3513   1424.04358     704.9016     661.3513
   1424.02832     704.5908     660.3310   1424.02832     704.5908     660.3310
   1424.01306     703.7686     661.4734   1424.01306     703.7686     661.4734
   1423.99780     703.0266     660.8001   1423.99780     703.0266     660.8001
   1423.98254     704.8065     660.8267   1423.98254     704.8065     660.8267
   1423.96729     703.2906     661.9776   1423.96729     703.2906     661.9776
   1423.95203     703.3463     660.5100   1423.95203     703.3463     660.5100
   1423.93677     704.2271     661.4133   1423.93677     704.2271     661.4133
   1423.92151     703.3718     662.1139   1423.92151     703.3718     662.1139
   1423.90625     702.8071     661.0844   1423.90625     702.8071     661.0844
   1423.89099     703.8412     660.4160   1423.89099     703.8412     660.4160
   1423.87573     703.1530     660.2817   1423.87573     703.1530     660.2817
   1423.86047     702.0636     660.4432   1423.86047     702.0636     660.4432
   1423.84521     703.9296     659.5548   1423.84521     703.9296     659.5548
   1423.82996     703.1072     659.8183   1423.82996     703.1072     659.8183
   1423.81470     703.0835     660.0691   1423.81470     703.0835     660.0691
   1423.79944     700.9111     658.5859   1423.79944     700.9111     658.5859
   1423.78418     702.2421     658.4319   1423.78418     702.2421     658.4319
   1423.76892     702.2677     659.5342   1423.76892     702.2677     659.5342
   1423.75366     700.6375     657.7939   1423.75366     700.6375     657.7939
   1423.73840     700.0841     656.9382   1423.73840     700.0841     656.9382
   1423.72314     700.7967     656.8645   1423.72314     700.7967     656.8645
   1423.70789     701.2155     657.0566   1423.70789     701.2155     657.0566
   1423.69263     700.6330     656.2965   1423.69263     700.6330     656.2965
   1423.67737     699.2081     655.2802   1423.67737     699.2081     655.2802
   1423.66211     700.1309     656.4975   1423.66211     700.1309     656.4975
   1423.64685     699.3843     655.2093   1423.64685     699.3843     655.2093
   1423.63159     698.5850     654.7532   1423.63159     698.5850     654.7532
   1423.61633     700.1232     655.6284   1423.61633     700.1232     655.6284
   1423.60107     698.0798     653.6261   1423.60107     698.0798     653.6261
   1423.58582     699.0769     653.9120   1423.58582     699.0769     653.9120
   1423.57056     697.7962     653.3799   1423.57056     697.7962     653.3799
   1423.55530     697.4601     651.9685   1423.55530     697.4601     651.9685
   1423.54004     697.1831     651.9412   1423.54004     697.1831     651.9412
   1423.52478     699.2453     650.3541   1423.52478     699.2453     650.3541
   1423.50952     697.8624     651.0762   1423.50952     697.8624     651.0762
   1423.49426     697.5921     649.2927   1423.49426     697.5921     649.2927
   1423.47900     696.5191     650.1950   1423.47900     696.5191     650.1950
   1423.46375     697.2983     649.7567   1423.46375     697.2983     649.7567
   1423.44849     696.1308     647.0115   1423.44849     696.1308     647.0115
   1423.43323     696.6173     646.7548   1423.43323     696.6173     646.7548
   1423.41797     696.6899     646.4340   1423.41797     696.6899     646.4340
   1423.40271     696.3111     646.6221   1423.40271     696.3111     646.6221
   1423.38745     696.8732     646.5992   1423.38745     696.8732     646.5992
   1423.37219     695.5070     645.7112   1423.37219     695.5070     645.7112
   1423.35693     695.4731     643.4649   1423.35693     695.4731     643.4649
   1423.34167     695.4410     644.0499   1423.34167     695.4410     644.0499
   1423.32642     693.9944     640.9870   1423.32642     693.9944     640.9870
   1423.31116     694.9836     641.7036   1423.31116     694.9836     641.7036
   1423.29590     695.0804     640.8392   1423.29590     695.0804     640.8392
   1423.28064     694.6166     640.2252   1423.28064     694.6166     640.2252
   1423.26538     694.4783     638.9523   1423.26538     694.4783     638.9523
   1423.25012     694.0421     637.7177   1423.25012     694.0421     637.7177
   1423.23486     693.4100     637.6927   1423.23486     693.4100     637.6927
   1423.21960     694.1430     636.7607   1423.21960     694.1430     636.7607
   1423.20435     692.5380     635.7827   1423.20435     692.5380     635.7827
   1423.18909     694.3225     634.4007   1423.18909     694.3225     634.4007
   1423.17383     694.3788     634.6365   1423.17383     694.3788     634.6365
   1423.15857     693.5107     633.3769   1423.15857     693.5107     633.3769
   1423.14331     692.3279     632.9189   1423.14331     692.3279     632.9189
   1423.12805     691.9362     632.8741   1423.12805     691.9362     632.8741
   1423.11279     693.0717     630.9824   1423.11279     693.0717     630.9824
   1423.09753     692.4512     629.2506   1423.09753     692.4512     629.2506
   1423.08228     691.5775     628.1664   1423.08228     691.5775     628.1664
   1423.06702     691.4366     627.8906   1423.06702     691.4366     627.8906
   1423.05176     690.8354     626.8931   1423.05176     690.8354     626.8931
   1423.03650     690.3654     624.7524   1423.03650     690.3654     624.7524
   1423.02124     690.8130     624.1473   1423.02124     690.8130     624.1473
   1423.00598     690.6415     622.4866   1423.00598     690.6415     622.4866
   1422.99072     691.2856     622.1325   1422.99072     691.2856     622.1325
   1422.97546     690.2677     621.7982   1422.97546     690.2677     621.7982
   1422.96021     690.0327     620.5959   1422.96021     690.0327     620.5959
   1422.94495     689.3987     619.3069   1422.94495     689.3987     619.3069
   1422.92969     688.8702     618.1932   1422.92969     688.8702     618.1932
   1422.91443     689.0409     616.7879   1422.91443     689.0409     616.7879
   1422.89917     689.5751     616.9238   1422.89917     689.5751     616.9238
   1422.88391     689.2629     615.1844   1422.88391     689.2629     615.1844
   1422.86865     688.5611     614.0308   1422.86865     688.5611     614.0308
   1422.85339     689.3037     612.1472   1422.85339     689.3037     612.1472
   1422.83813     686.9966     611.6675   1422.83813     686.9966     611.6675
   1422.82288     687.8395     610.0133   1422.82288     687.8395     610.0133
   1422.80762     688.0217     609.8298   1422.80762     688.0217     609.8298
   1422.79236     687.0103     609.0448   1422.79236     687.0103     609.0448
   1422.77710     687.7273     606.4938   1422.77710     687.7273     606.4938
   1422.76184     686.5535     606.0551   1422.76184     686.5535     606.0551
   1422.74658     687.4673     605.0872   1422.74658     687.4673     605.0872
   1422.73132     686.3430     603.6857   1422.73132     686.3430     603.6857
   1422.71606     685.6551     602.6894   1422.71606     685.6551     602.6894
   1422.70081     685.6507     601.1350   1422.70081     685.6507     601.1350
   1422.68555     687.0636     600.4246   1422.68555     687.0636     600.4246
   1422.67029     686.9814     598.9631   1422.67029     686.9814     598.9631
   1422.65503     685.9606     598.0370   1422.65503     685.9606     598.0370
   1422.63977     684.4945     597.5938   1422.63977     684.4945     597.5938
   1422.62451     685.2687     595.6245   1422.62451     685.2687     595.6245
   1422.60925     684.3710     594.6951   1422.60925     684.3710     594.6951
   1422.59399     684.9514     592.6933   1422.59399     684.9514     592.6933
   1422.57874     683.4708     591.1995   1422.57874     683.4708     591.1995
   1422.56348     683.9737     590.2104   1422.56348     683.9737     590.2104
   1422.54822     685.1353     589.8088   1422.54822     685.1353     589.8088
   1422.53296     683.3293     588.7061   1422.53296     683.3293     588.7061
   1422.51770     683.5635     586.7060   1422.51770     683.5635     586.7060
   1422.50244     683.6370     584.9621   1422.50244     683.6370     584.9621
   1422.48718     682.8984     584.1600   1422.48718     682.8984     584.1600
   1422.47192     683.1995     583.7878   1422.47192     683.1995     583.7878
   1422.45667     682.4731     581.3318   1422.45667     682.4731     581.3318
   1422.44141     682.1034     580.5974   1422.44141     682.1034     580.5974
   1422.42615     682.1398     578.9522   1422.42615     682.1398     578.9522
   1422.41089     682.7550     577.6326   1422.41089     682.7550     577.6326
   1422.39563     681.6010     576.0711   1422.39563     681.6010     576.0711
   1422.38037     681.7589     575.4745   1422.38037     681.7589     575.4745
   1422.36511     680.8903     574.2885   1422.36511     680.8903     574.2885
   1422.34985     680.7512     572.3513   1422.34985     680.7512     572.3513
   1422.33459     681.9420     571.5416   1422.33459     681.9420     571.5416
   1422.31934     680.2542     570.5924   1422.31934     680.2542     570.5924
   1422.30408     681.0451     568.8828   1422.30408     681.0451     568.8828
   1422.28882     680.1229     567.6375   1422.28882     680.1229     567.6375
   1422.27356     680.3001     566.8856   1422.27356     680.3001     566.8856
   1422.25830     679.7673     564.3024   1422.25830     679.7673     564.3024
   1422.24304     680.1135     564.5385   1422.24304     680.1135     564.5385
   1422.22778     680.0884     562.5356   1422.22778     680.0884     562.5356
   1422.21252     679.6494     563.1328   1422.21252     679.6494     563.1328
   1422.19727     679.6714     559.7968   1422.19727     679.6714     559.7968
   1422.18201     678.4340     558.8571   1422.18201     678.4340     558.8571
   1422.16675     678.1484     557.5928   1422.16675     678.1484     557.5928
   1422.15149     677.6507     556.1003   1422.15149     677.6507     556.1003
   1422.13623     676.5736     555.6372   1422.13623     676.5736     555.6372
   1422.12097     677.5715     554.1895   1422.12097     677.5715     554.1895
   1422.10571     678.0859     552.8133   1422.10571     678.0859     552.8133
   1422.09045     677.6526     551.4241   1422.09045     677.6526     551.4241
   1422.07520     677.1504     550.5417   1422.07520     677.1504     550.5417
   1422.05994     677.4312     548.9958   1422.05994     677.4312     548.9958
   1422.04468     676.1829     547.8997   1422.04468     676.1829     547.8997
   1422.02942     676.8615     545.9601   1422.02942     676.8615     545.9601
   1422.01416     676.4344     545.0665   1422.01416     676.4344     545.0665
   1421.99890     676.0977     543.4835   1421.99890     676.0977     543.4835
   1421.98364     675.1118     542.9383   1421.98364     675.1118     542.9383
   1421.96838     674.8117     540.6646   1421.96838     674.8117     540.6646
   1421.95312     675.7832     538.8640   1421.95312     675.7832     538.8640
   1421.93787     675.3036     538.1251   1421.93787     675.3036     538.1251
   1421.92261     674.8012     536.8446   1421.92261     674.8012     536.8446
   1421.90735     673.9716     535.9708   1421.90735     673.9716     535.9708
   1421.89209     674.5109     534.7838   1421.89209     674.5109     534.7838
   1421.87683     673.8863     534.3708   1421.87683     673.8863     534.3708
   1421.86157     674.1807     532.2213   1421.86157     674.1807     532.2213
   1421.84631     672.9112     531.2765   1421.84631     672.9112     531.2765
   1421.83105     673.4535     529.2057   1421.83105     673.4535     529.2057
   1421.81580     672.9402     528.7719   1421.81580     672.9402     528.7719
   1421.80054     672.4461     526.8285   1421.80054     672.4461     526.8285
   1421.78528     673.7078     525.6216   1421.78528     673.7078     525.6216
   1421.77002     671.5923     524.8513   1421.77002     671.5923     524.8513
   1421.75476     672.8788     523.6220   1421.75476     672.8788     523.6220
   1421.73950     671.4542     522.2751   1421.73950     671.4542     522.2751
   1421.72424     671.5003     520.3428   1421.72424     671.5003     520.3428
   1421.70898     671.0767     519.5232   1421.70898     671.0767     519.5232
   1421.69373     671.2999     518.9197   1421.69373     671.2999     518.9197
   1421.67847     670.5981     516.1454   1421.67847     670.5981     516.1454
   1421.66321     671.3260     516.2119   1421.66321     671.3260     516.2119
   1421.64795     669.8014     514.5875   1421.64795     669.8014     514.5875
   1421.63269     670.0300     513.4116   1421.63269     670.0300     513.4116
   1421.61743     670.7448     512.6880   1421.61743     670.7448     512.6880
   1421.60217     669.6694     510.1604   1421.60217     669.6694     510.1604
   1421.58691     668.9318     509.8253   1421.58691     668.9318     509.8253
   1421.57166     668.2762     508.4903   1421.57166     668.2762     508.4903
   1421.55640     669.5918     506.2896   1421.55640     669.5918     506.2896
   1421.54114     670.7626     506.4636   1421.54114     670.7626     506.4636
   1421.52588     668.7863     505.7252   1421.52588     668.7863     505.7252
   1421.51062     668.1370     503.4199   1421.51062     668.1370     503.4199
   1421.49536     666.7794     503.4463   1421.49536     666.7794     503.4463
   1421.48010     668.5624     500.9788   1421.48010     668.5624     500.9788
   1421.46484     666.8039     499.4064   1421.46484     666.8039     499.4064
   1421.44958     666.5173     498.8844   1421.44958     666.5173     498.8844
   1421.43433     666.0367     497.1957   1421.43433     666.0367     497.1957
   1421.41907     667.0977     496.5687   1421.41907     667.0977     496.5687
   1421.40381     666.3032     495.2048   1421.40381     666.3032     495.2048
   1421.38855     666.5383     493.7615   1421.38855     666.5383     493.7615
   1421.37329     665.6636     493.6326   1421.37329     665.6636     493.6326
   1421.35803     666.0903     491.4125   1421.35803     666.0903     491.4125
   1421.34277     664.0878     490.3635   1421.34277     664.0878     490.3635
   1421.32751     665.2312     490.2033   1421.32751     665.2312     490.2033
   1421.31226     665.7067     489.0376   1421.31226     665.7067     489.0376
   1421.29700     663.3461     486.5556   1421.29700     663.3461     486.5556
   1421.28174     662.5637     485.7657   1421.28174     662.5637     485.7657
   1421.26648     663.1400     484.5849   1421.26648     663.1400     484.5849
   1421.25122     664.0255     482.8261   1421.25122     664.0255     482.8261
   1421.23596     664.1015     482.6814   1421.23596     664.1015     482.6814
   1421.22070     663.2508     481.9484   1421.22070     663.2508     481.9484
   1421.20544     661.1238     480.4385   1421.20544     661.1238     480.4385
   1421.19019     662.5984     479.1070   1421.19019     662.5984     479.1070
   1421.17493     661.9779     477.7973   1421.17493     661.9779     477.7973
   1421.15967     661.5806     476.3784   1421.15967     661.5806     476.3784
   1421.14441     662.0416     475.1950   1421.14441     662.0416     475.1950
   1421.12915     661.0822     474.0066   1421.12915     661.0822     474.0066
   1421.11389     660.4963     473.3688   1421.11389     660.4963     473.3688
   1421.09863     661.0406     472.4612   1421.09863     661.0406     472.4612
   1421.08337     660.1234     472.0359   1421.08337     660.1234     472.0359
   1421.06812     659.7534     470.0718   1421.06812     659.7534     470.0718
   1421.05286     660.0173     469.5834   1421.05286     660.0173     469.5834
   1421.03760     660.1479     467.6651   1421.03760     660.1479     467.6651
   1421.02234     660.0720     467.1921   1421.02234     660.0720     467.1921
   1421.00708     659.1840     466.5568   1421.00708     659.1840     466.5568
   1420.99182     660.0327     465.5270   1420.99182     660.0327     465.5270
   1420.97656     659.5457     463.9310   1420.97656     659.5457     463.9310
   1420.96130     658.9426     463.3200   1420.96130     658.9426     463.3200
   1420.94604     658.0471     462.0510   1420.94604     658.0471     462.0510
   1420.93079     658.7355     460.3898   1420.93079     658.7355     460.3898
   1420.91553     658.2369     459.9351   1420.91553     658.2369     459.9351
   1420.90027     657.7344     459.1168   1420.90027     657.7344     459.1168
   1420.88501     658.2669     457.6348   1420.88501     658.2669     457.6348
   1420.86975     658.2700     457.6209   1420.86975     658.2700     457.6209
   1420.85449     657.7368     456.8251   1420.85449     657.7368     456.8251
   1420.83923     657.6394     455.5328   1420.83923     657.6394     455.5328
   1420.82397     656.8735     454.5104   1420.82397     656.8735     454.5104
   1420.80872     657.2698     453.5980   1420.80872     657.2698     453.5980
   1420.79346     657.4902     452.8806   1420.79346     657.4902     452.8806
   1420.77820     657.2167     451.9058   1420.77820     657.2167     451.9058
   1420.76294     657.0242     451.3203   1420.76294     657.0242     451.3203
   1420.74768     657.8715     450.3808   1420.74768     657.8715     450.3808
   1420.73242     657.8391     450.3614   1420.73242     657.8391     450.3614
   1420.71716     656.6139     448.6870   1420.71716     656.6139     448.6870
   1420.70190     656.8256     447.5336   1420.70190     656.8256     447.5336
   1420.68665     658.0435     446.9170   1420.68665     658.0435     446.9170
   1420.67139     656.1550     446.8006   1420.67139     656.1550     446.8006
   1420.65613     655.2878     445.0162   1420.65613     655.2878     445.0162
   1420.64087     656.9297     444.4141   1420.64087     656.9297     444.4141
   1420.62561     656.3901     442.9089   1420.62561     656.3901     442.9089
   1420.61035     655.8347     442.4536   1420.61035     655.8347     442.4536
   1420.59509     655.9279     441.6636   1420.59509     655.9279     441.6636
   1420.57983     656.2612     441.6383   1420.57983     656.2612     441.6383
   1420.56458     657.4083     441.4418   1420.56458     657.4083     441.4418
   1420.54932     659.1329     441.8266   1420.54932     659.1329     441.8266
   1420.53406     660.7324     441.8951   1420.53406     660.7324     441.8951
   1420.51880     661.2559     440.9897   1420.51880     661.2559     440.9897
   1420.50354     662.0544     441.7439   1420.50354     662.0544     441.7439
   1420.48828     660.5764     439.8625   1420.48828     660.5764     439.8625
   1420.47302     658.5404     437.5678   1420.47302     658.5404     437.5678
   1420.45776     659.0913     437.0076   1420.45776     659.0913     437.0076
   1420.44250     658.4894     436.1231   1420.44250     658.4894     436.1231
   1420.42725     657.6031     435.0478   1420.42725     657.6031     435.0478
   1420.41199     657.9470     434.7969   1420.41199     657.9470     434.7969
   1420.39673     657.4305     433.4196   1420.39673     657.4305     433.4196
   1420.38147     657.4668     433.1088   1420.38147     657.4668     433.1088
   1420.36621     658.0238     432.3698   1420.36621     658.0238     432.3698
   1420.35095     659.3447     433.0049   1420.35095     659.3447     433.0049
   1420.33569     660.6583     432.6626   1420.33569     660.6583     432.6626
   1420.32043     662.2996     434.3792   1420.32043     662.2996     434.3792
   1420.30518     668.4819     436.3590   1420.30518     668.4819     436.3590
   1420.28992     676.2735     440.0431   1420.28992     676.2735     440.0431
   1420.27466     690.4106     449.2689   1420.27466     690.4106     449.2689
   1420.25940     728.5496     471.4675   1420.25940     728.5496     471.4675
   1420.24414     851.2349     548.9037   1420.24414     851.2349     548.9037
   1420.22888    1219.5085     776.3187   1420.22888    1219.5085     776.3187
   1420.21362    1299.8063     824.9604   1420.21362    1299.8063     824.9604
   1420.19836    1150.5917     732.7119   1420.19836    1150.5917     732.7119
   1420.18311    1134.7086     723.8738   1420.18311    1134.7086     723.8738
   1420.16785    1373.8217     868.3983   1420.16785    1373.8217     868.3983
   1420.15259    1542.3851     976.2838   1420.15259    1542.3851     976.2838
   1420.13733    1404.0632     888.4739   1420.13733    1404.0632     888.4739
   1420.12207    1191.9446     753.4890   1420.12207    1191.9446     753.4890
   1420.10681    1144.1222     723.6865   1420.10681    1144.1222     723.6865
   1420.09155    1008.0302     637.7582   1420.09155    1008.0302     637.7582
   1420.07629     996.6755     628.7327   1420.07629     996.6755     628.7327
   1420.06104    1113.7111     700.8820   1420.06104    1113.7111     700.8820
   1420.04578    1223.9424     768.0228   1420.04578    1223.9424     768.0228
   1420.03052    1259.5889     785.9016   1420.03052    1259.5889     785.9016
   1420.01526    1309.1248     818.3846   1420.01526    1309.1248     818.3846
   1420.00000    1525.3373     950.8896   1420.00000    1525.3373     950.8896
   1419.98474    1741.5494    1083.3948   1419.98474    1741.5494    1083.3948
   1419.96948    1757.8489    1091.9070   1419.96948    1757.8489    1091.9070
   1419.95422    1611.1136    1000.4501   1419.95422    1611.1136    1000.4501
   1419.93896    1552.5258     962.1383   1419.93896    1552.5258     962.1383
   1419.92371    1498.2499     926.2916   1419.92371    1498.2499     926.2916
   1419.90845    1358.2896     842.3930   1419.90845    1358.2896     842.3930
   1419.89319    1123.3362     697.1003   1419.89319    1123.3362     697.1003
   1419.87793     935.3867     581.7877   1419.87793     935.3867     581.7877
   1419.86267     831.3116     519.4328   1419.86267     831.3116     519.4328
   1419.84741     774.8477     483.0684   1419.84741     774.8477     483.0684
   1419.83215     737.7711     460.8802   1419.83215     737.7711     460.8802
   1419.81689     715.7411     447.6611   1419.81689     715.7411     447.6611
   1419.80164     700.8697     436.4734   1419.80164     700.8697     436.4734
   1419.78638     689.0790     430.0951   1419.78638     689.0790     430.0951
   1419.77112     682.8369     425.5752   1419.77112     682.8369     425.5752
   1419.75586     676.9590     421.7191   1419.75586     676.9590     421.7191
   1419.74060     671.0378     417.3489   1419.74060     671.0378     417.3489
   1419.72534     666.5173     414.4432   1419.72534     666.5173     414.4432
   1419.71008     662.9639     411.5297   1419.71008     662.9639     411.5297
   1419.69482     658.1031     408.7207   1419.69482     658.1031     408.7207
   1419.67957     656.3860     406.8003   1419.67957     656.3860     406.8003
   1419.66431     655.9284     405.4111   1419.66431     655.9284     405.4111
   1419.64905     653.9902     404.9207   1419.64905     653.9902     404.9207
   1419.63379     654.6077     404.5641   1419.63379     654.6077     404.5641
   1419.61853     655.7714     403.8983   1419.61853     655.7714     403.8983
   1419.60327     654.0746     403.3705   1419.60327     654.0746     403.3705
   1419.58801     654.4050     403.3652   1419.58801     654.4050     403.3652
   1419.57275     653.9460     402.8260   1419.57275     653.9460     402.8260
   1419.55750     654.7768     401.8488   1419.55750     654.7768     401.8488
   1419.54224     654.8442     402.3131   1419.54224     654.8442     402.3131
   1419.52698     653.8840     402.0121   1419.52698     653.8840     402.0121
   1419.51172     653.4724     401.7765   1419.51172     653.4724     401.7765
   1419.49646     655.3934     400.6412   1419.49646     655.3934     400.6412
   1419.48120     654.8894     400.9958   1419.48120     654.8894     400.9958
   1419.46594     654.9707     401.0712   1419.46594     654.9707     401.0712
   1419.45068     655.9037     400.2794   1419.45068     655.9037     400.2794
   1419.43542     655.5798     399.9897   1419.43542     655.5798     399.9897
   1419.42017     656.1048     400.1805   1419.42017     656.1048     400.1805
   1419.40491     655.9009     400.5542   1419.40491     655.9009     400.5542
   1419.38965     657.0469     399.6148   1419.38965     657.0469     399.6148
   1419.37439     657.4203     399.4943   1419.37439     657.4203     399.4943
   1419.35913     656.8674     399.2321   1419.35913     656.8674     399.2321
   1419.34387     657.0325     399.4857   1419.34387     657.0325     399.4857
   1419.32861     658.3630     399.8537   1419.32861     658.3630     399.8537
   1419.31335     658.1801     399.9565   1419.31335     658.1801     399.9565
   1419.29810     658.5092     400.1290   1419.29810     658.5092     400.1290
   1419.28284     660.7936     399.5540   1419.28284     660.7936     399.5540
   1419.26758     659.6890     400.1001   1419.26758     659.6890     400.1001
   1419.25232     661.0225     399.5857   1419.25232     661.0225     399.5857
   1419.23706     661.1003     399.8510   1419.23706     661.1003     399.8510
   1419.22180     661.1337     400.7008   1419.22180     661.1337     400.7008
   1419.20654     662.4711     399.4339   1419.20654     662.4711     399.4339
   1419.19128     662.7007     399.6221   1419.19128     662.7007     399.6221
   1419.17603     663.3656     399.9083   1419.17603     663.3656     399.9083
   1419.16077     663.7679     400.3415   1419.16077     663.7679     400.3415
   1419.14551     664.8884     400.7430   1419.14551     664.8884     400.7430
   1419.13025     665.4150     400.6377   1419.13025     665.4150     400.6377
   1419.11499     666.3375     400.0923   1419.11499     666.3375     400.0923
   1419.09973     665.8235     400.4792   1419.09973     665.8235     400.4792
   1419.08447     667.1478     400.3781   1419.08447     667.1478     400.3781
   1419.06921     666.1537     401.3561   1419.06921     666.1537     401.3561
   1419.05396     668.1366     400.9245   1419.05396     668.1366     400.9245
   1419.03870     669.1613     400.7957   1419.03870     669.1613     400.7957
   1419.02344     669.6083     401.0954   1419.02344     669.6083     401.0954
   1419.00818     670.5090     400.9933   1419.00818     670.5090     400.9933
   1418.99292     671.7139     401.7043   1418.99292     671.7139     401.7043
   1418.97766     671.1750     401.3092   1418.97766     671.1750     401.3092
   1418.96240     671.5849     402.0398   1418.96240     671.5849     402.0398
   1418.94714     672.2462     402.1534   1418.94714     672.2462     402.1534
   1418.93188     672.2648     401.6345   1418.93188     672.2648     401.6345
   1418.91663     673.8972     402.3068   1418.91663     673.8972     402.3068
   1418.90137     674.5175     403.5417   1418.90137     674.5175     403.5417
   1418.88611     676.2059     403.1732   1418.88611     676.2059     403.1732
   1418.87085     675.2458     403.6768   1418.87085     675.2458     403.6768
   1418.85559     676.3942     404.1508   1418.85559     676.3942     404.1508
   1418.84033     677.8347     403.3993   1418.84033     677.8347     403.3993
   1418.82507     678.2746     404.6453   1418.82507     678.2746     404.6453
   1418.80981     677.7314     404.1393   1418.80981     677.7314     404.1393
   1418.79456     679.9238     404.8795   1418.79456     679.9238     404.8795
   1418.77930     681.1954     405.0980   1418.77930     681.1954     405.0980
   1418.76404     681.8179     405.9226   1418.76404     681.8179     405.9226
   1418.74878     681.7619     405.7192   1418.74878     681.7619     405.7192
   1418.73352     682.1091     406.2890   1418.73352     682.1091     406.2890
   1418.71826     684.3006     406.8266   1418.71826     684.3006     406.8266
   1418.70300     684.1248     406.3156   1418.70300     684.1248     406.3156
   1418.68774     685.7866     406.7029   1418.68774     685.7866     406.7029
   1418.67249     686.3188     407.6956   1418.67249     686.3188     407.6956
   1418.65723     687.3146     407.9789   1418.65723     687.3146     407.9789
   1418.64197     687.9675     407.8952   1418.64197     687.9675     407.8952
   1418.62671     690.1036     408.6986   1418.62671     690.1036     408.6986
   1418.61145     689.6434     408.9990   1418.61145     689.6434     408.9990
   1418.59619     690.3353     409.8556   1418.59619     690.3353     409.8556
   1418.58093     691.9423     409.6859   1418.58093     691.9423     409.6859
   1418.56567     693.0240     410.5682   1418.56567     693.0240     410.5682
   1418.55042     693.2977     411.3322   1418.55042     693.2977     411.3322
   1418.53516     695.0656     411.5730   1418.53516     695.0656     411.5730
   1418.51990     695.1314     412.2860   1418.51990     695.1314     412.2860
   1418.50464     695.4562     412.8291   1418.50464     695.4562     412.8291
   1418.48938     696.9141     412.3061   1418.48938     696.9141     412.3061
   1418.47412     698.0211     413.0587   1418.47412     698.0211     413.0587
   1418.45886     699.3727     413.8152   1418.45886     699.3727     413.8152
   1418.44360     698.8777     414.7403   1418.44360     698.8777     414.7403
   1418.42834     701.5433     414.5887   1418.42834     701.5433     414.5887
   1418.41309     700.8358     415.0846   1418.41309     700.8358     415.0846
   1418.39783     703.1265     415.5667   1418.39783     703.1265     415.5667
   1418.38257     702.8011     416.4150   1418.38257     702.8011     416.4150
   1418.36731     705.6179     417.0188   1418.36731     705.6179     417.0188
   1418.35205     705.4240     417.5020   1418.35205     705.4240     417.5020
   1418.33679     706.5446     417.6975   1418.33679     706.5446     417.6975
   1418.32153     708.7040     418.7693   1418.32153     708.7040     418.7693
   1418.30627     708.6169     418.5183   1418.30627     708.6169     418.5183
   1418.29102     709.7504     418.8421   1418.29102     709.7504     418.8421
   1418.27576     710.1967     419.5724   1418.27576     710.1967     419.5724
   1418.26050     711.3024     420.2584   1418.26050     711.3024     420.2584
   1418.24524     712.4069     421.1124   1418.24524     712.4069     421.1124
   1418.22998     713.6080     421.4355   1418.22998     713.6080     421.4355
   1418.21472     714.6093     421.8964   1418.21472     714.6093     421.8964
   1418.19946     715.9792     422.7858   1418.19946     715.9792     422.7858
   1418.18420     716.4979     422.9158   1418.18420     716.4979     422.9158
   1418.16895     718.2020     423.8845   1418.16895     718.2020     423.8845
   1418.15369     718.6869     424.3445   1418.15369     718.6869     424.3445
   1418.13843     720.2213     425.2709   1418.13843     720.2213     425.2709
   1418.12317     721.9879     425.6766   1418.12317     721.9879     425.6766
   1418.10791     722.7368     426.5184   1418.10791     722.7368     426.5184
   1418.09265     724.9286     426.7961   1418.09265     724.9286     426.7961
   1418.07739     724.5402     427.4371   1418.07739     724.5402     427.4371
   1418.06213     725.3720     428.1978   1418.06213     725.3720     428.1978
   1418.04688     727.6174     428.7544   1418.04688     727.6174     428.7544
   1418.03162     727.3801     429.8941   1418.03162     727.3801     429.8941
   1418.01636     728.8268     429.5737   1418.01636     728.8268     429.5737
   1418.00110     729.3275     430.9172   1418.00110     729.3275     430.9172
   1417.98584     731.6282     431.4000   1417.98584     731.6282     431.4000
   1417.97058     733.2090     431.7513   1417.97058     733.2090     431.7513
   1417.95532     733.0172     432.4180   1417.95532     733.0172     432.4180
   1417.94006     734.3735     433.2355   1417.94006     734.3735     433.2355
   1417.92480     736.5670     434.2063   1417.92480     736.5670     434.2063
   1417.90955     736.5672     434.4580   1417.90955     736.5672     434.4580
   1417.89429     738.9852     435.4250   1417.89429     738.9852     435.4250
   1417.87903     739.0735     435.7359   1417.87903     739.0735     435.7359
   1417.86377     739.3653     437.3790   1417.86377     739.3653     437.3790
   1417.84851     742.4473     437.3952   1417.84851     742.4473     437.3952
   1417.83325     742.0956     437.2971   1417.83325     742.0956     437.2971
   1417.81799     742.8000     438.8472   1417.81799     742.8000     438.8472
   1417.80273     744.9420     439.0108   1417.80273     744.9420     439.0108
   1417.78748     745.4538     439.9920   1417.78748     745.4538     439.9920
   1417.77222     747.3904     441.1616   1417.77222     747.3904     441.1616
   1417.75696     748.1329     442.0807   1417.75696     748.1329     442.0807
   1417.74170     749.6666     441.9562   1417.74170     749.6666     441.9562
   1417.72644     750.2032     443.0187   1417.72644     750.2032     443.0187
   1417.71118     751.8873     442.8582   1417.71118     751.8873     442.8582
   1417.69592     752.5225     444.3727   1417.69592     752.5225     444.3727
   1417.68066     752.5338     443.6338   1417.68066     752.5338     443.6338
   1417.66541     754.3410     445.5178   1417.66541     754.3410     445.5178
   1417.65015     754.9774     445.8983   1417.65015     754.9774     445.8983
   1417.63489     757.8357     446.4054   1417.63489     757.8357     446.4054
   1417.61963     756.6550     447.3139   1417.61963     756.6550     447.3139
   1417.60437     760.6546     448.7315   1417.60437     760.6546     448.7315
   1417.58911     759.8820     448.4062   1417.58911     759.8820     448.4062
   1417.57385     760.8096     449.2477   1417.57385     760.8096     449.2477
   1417.55859     761.5083     449.7731   1417.55859     761.5083     449.7731
   1417.54333     762.9030     451.2540   1417.54333     762.9030     451.2540
   1417.52808     764.8839     451.7326   1417.52808     764.8839     451.7326
   1417.51282     765.0226     451.0412   1417.51282     765.0226     451.0412
   1417.49756     766.2277     452.2877   1417.49756     766.2277     452.2877
   1417.48230     767.7028     453.1750   1417.48230     767.7028     453.1750
   1417.46704     767.9671     454.2735   1417.46704     767.9671     454.2735
   1417.45178     771.5478     455.1243   1417.45178     771.5478     455.1243
   1417.43652     770.1478     455.8994   1417.43652     770.1478     455.8994
   1417.42126     771.0847     456.0567   1417.42126     771.0847     456.0567
   1417.40601     772.0137     455.8965   1417.40601     772.0137     455.8965
   1417.39075     774.3652     457.3122   1417.39075     774.3652     457.3122
   1417.37549     774.9648     457.6123   1417.37549     774.9648     457.6123
   1417.36023     776.0419     458.2886   1417.36023     776.0419     458.2886
   1417.34497     776.7624     459.2669   1417.34497     776.7624     459.2669
   1417.32971     776.8011     459.7586   1417.32971     776.8011     459.7586
   1417.31445     778.2468     460.1643   1417.31445     778.2468     460.1643
   1417.29919     778.5853     461.2947   1417.29919     778.5853     461.2947
   1417.28394     780.9164     461.2510   1417.28394     780.9164     461.2510
   1417.26868     780.1353     461.9708   1417.26868     780.1353     461.9708
   1417.25342     781.1218     462.4688   1417.25342     781.1218     462.4688
   1417.23816     781.5352     464.4003   1417.23816     781.5352     464.4003
   1417.22290     785.5886     464.6014   1417.22290     785.5886     464.6014
   1417.20764     783.8334     464.4521   1417.20764     783.8334     464.4521
   1417.19238     784.7197     465.4211   1417.19238     784.7197     465.4211
   1417.17712     786.4237     465.4006   1417.17712     786.4237     465.4006
   1417.16187     785.8596     465.9834   1417.16187     785.8596     465.9834
   1417.14661     787.9430     467.7518   1417.14661     787.9430     467.7518
   1417.13135     788.0654     467.6513   1417.13135     788.0654     467.6513
   1417.11609     788.3024     468.1945   1417.11609     788.3024     468.1945
   1417.10083     789.0201     468.4230   1417.10083     789.0201     468.4230
   1417.08557     790.3172     469.4196   1417.08557     790.3172     469.4196
   1417.07031     792.3222     470.3841   1417.07031     792.3222     470.3841
   1417.05505     793.2468     470.2233   1417.05505     793.2468     470.2233
   1417.03979     793.1446     470.8120   1417.03979     793.1446     470.8120
   1417.02454     793.8832     471.6313   1417.02454     793.8832     471.6313
   1417.00928     794.0364     471.8274   1417.00928     794.0364     471.8274
   1416.99402     795.2455     472.0539   1416.99402     795.2455     472.0539
   1416.97876     796.1236     472.5476   1416.97876     796.1236     472.5476
   1416.96350     796.0574     472.8940   1416.96350     796.0574     472.8940
   1416.94824     797.1216     474.0096   1416.94824     797.1216     474.0096
   1416.93298     797.5617     474.3097   1416.93298     797.5617     474.3097
   1416.91772     798.1738     473.9709   1416.91772     798.1738     473.9709
   1416.90247     799.3111     475.1572   1416.90247     799.3111     475.1572
   1416.88721     798.1861     474.9630   1416.88721     798.1861     474.9630
   1416.87195     800.4918     475.8183   1416.87195     800.4918     475.8183
   1416.85669     800.2983     476.4516   1416.85669     800.2983     476.4516
   1416.84143     799.9983     476.3604   1416.84143     799.9983     476.3604
   1416.82617     800.4305     476.6825   1416.82617     800.4305     476.6825
   1416.81091     801.0308     477.1353   1416.81091     801.0308     477.1353
   1416.79565     801.8315     477.2413   1416.79565     801.8315     477.2413
   1416.78040     801.5070     477.7760   1416.78040     801.5070     477.7760
   1416.76514     802.7404     478.0838   1416.76514     802.7404     478.0838
   1416.74988     803.0750     478.4178   1416.74988     803.0750     478.4178
   1416.73462     804.4089     478.8002   1416.73462     804.4089     478.8002
   1416.71936     804.1494     478.6172   1416.71936     804.1494     478.6172
   1416.70410     803.2661     478.7786   1416.70410     803.2661     478.7786
   1416.68884     803.8052     479.6101   1416.68884     803.8052     479.6101
   1416.67358     804.7578     479.8171   1416.67358     804.7578     479.8171
   1416.65833     804.6685     480.3510   1416.65833     804.6685     480.3510
   1416.64307     805.5706     480.4814   1416.64307     805.5706     480.4814
   1416.62781     804.0604     480.4125   1416.62781     804.0604     480.4125
   1416.61255     805.0276     480.6542   1416.61255     805.0276     480.6542
   1416.59729     806.2109     480.9680   1416.59729     806.2109     480.9680
   1416.58203     805.1898     480.6873   1416.58203     805.1898     480.6873
   1416.56677     805.4321     481.3619   1416.56677     805.4321     481.3619
   1416.55151     806.2270     480.6443   1416.55151     806.2270     480.6443
   1416.53625     806.1749     481.1180   1416.53625     806.1749     481.1180
   1416.52100     806.6356     481.2876   1416.52100     806.6356     481.2876
   1416.50574     806.8455     480.3961   1416.50574     806.8455     480.3961
   1416.49048     805.0150     481.0451   1416.49048     805.0150     481.0451
   1416.47522     806.4090     481.6788   1416.47522     806.4090     481.6788
   1416.45996     805.1168     480.8825   1416.45996     805.1168     480.8825
   1416.44470     806.9797     481.8522   1416.44470     806.9797     481.8522
   1416.42944     806.8948     481.2351   1416.42944     806.8948     481.2351
   1416.41418     806.8140     481.8088   1416.41418     806.8140     481.8088
   1416.39893     807.3575     481.7180   1416.39893     807.3575     481.7180
   1416.38367     806.3423     481.7590   1416.38367     806.3423     481.7590
   1416.36841     806.2012     482.4982   1416.36841     806.2012     482.4982
   1416.35315     805.8076     481.6945   1416.35315     805.8076     481.6945
   1416.33789     806.1256     481.8617   1416.33789     806.1256     481.8617
   1416.32263     804.5970     480.6628   1416.32263     804.5970     480.6628
   1416.30737     805.9274     481.7274   1416.30737     805.9274     481.7274
   1416.29211     804.6927     481.4999   1416.29211     804.6927     481.4999
   1416.27686     803.9066     481.5906   1416.27686     803.9066     481.5906
   1416.26160     804.2016     481.4657   1416.26160     804.2016     481.4657
   1416.24634     805.5558     481.0051   1416.24634     805.5558     481.0051
   1416.23108     805.2492     480.5991   1416.23108     805.2492     480.5991
   1416.21582     804.4088     481.2751   1416.21582     804.4088     481.2751
   1416.20056     803.7667     481.2191   1416.20056     803.7667     481.2191
   1416.18530     803.1512     481.0361   1416.18530     803.1512     481.0361
   1416.17004     802.7375     481.0302   1416.17004     802.7375     481.0302
   1416.15479     802.0101     480.0670   1416.15479     802.0101     480.0670
   1416.13953     802.1257     481.2690   1416.13953     802.1257     481.2690
   1416.12427     802.1957     480.5275   1416.12427     802.1957     480.5275
   1416.10901     801.6430     480.4030   1416.10901     801.6430     480.4030
   1416.09375     800.7969     480.6821   1416.09375     800.7969     480.6821
   1416.07849     799.7296     479.5073   1416.07849     799.7296     479.5073
   1416.06323     800.5740     480.1058   1416.06323     800.5740     480.1058
   1416.04797     798.9774     479.7617   1416.04797     798.9774     479.7617
   1416.03271     798.7376     480.0464   1416.03271     798.7376     480.0464
   1416.01746     799.6394     479.5721   1416.01746     799.6394     479.5721
   1416.00220     797.4474     479.0342   1416.00220     797.4474     479.0342
   1415.98694     797.3259     479.0000   1415.98694     797.3259     479.0000
   1415.97168     796.4894     478.5616   1415.97168     796.4894     478.5616
   1415.95642     795.7123     479.1996   1415.95642     795.7123     479.1996
   1415.94116     795.1965     478.4321   1415.94116     795.1965     478.4321
   1415.92590     794.9124     478.8604   1415.92590     794.9124     478.8604
   1415.91064     793.6799     478.1158   1415.91064     793.6799     478.1158
   1415.89539     793.5491     478.4519   1415.89539     793.5491     478.4519
   1415.88013     792.5803     478.1148   1415.88013     792.5803     478.1148
   1415.86487     791.1987     477.8033   1415.86487     791.1987     477.8033
   1415.84961     791.6238     477.9891   1415.84961     791.6238     477.9891
   1415.83435     789.8934     477.2805   1415.83435     789.8934     477.2805
   1415.81909     790.9315     477.2961   1415.81909     790.9315     477.2961
   1415.80383     789.6402     477.0531   1415.80383     789.6402     477.0531
   1415.78857     788.7599     476.7455   1415.78857     788.7599     476.7455
   1415.77332     788.6282     476.9416   1415.77332     788.6282     476.9416
   1415.75806     787.0477     476.9384   1415.75806     787.0477     476.9384
   1415.74280     786.3087     475.5878   1415.74280     786.3087     475.5878
   1415.72754     785.2455     475.7205   1415.72754     785.2455     475.7205
   1415.71228     784.4675     475.8179   1415.71228     784.4675     475.8179
   1415.69702     783.4341     475.0222   1415.69702     783.4341     475.0222
   1415.68176     783.5602     474.7518   1415.68176     783.5602     474.7518
   1415.66650     781.6328     475.2743   1415.66650     781.6328     475.2743
   1415.65125     780.9633     473.9936   1415.65125     780.9633     473.9936
   1415.63599     780.6622     474.5434   1415.63599     780.6622     474.5434
   1415.62073     779.1306     473.9430   1415.62073     779.1306     473.9430
   1415.60547     778.8140     474.3255   1415.60547     778.8140     474.3255
   1415.59021     777.6307     473.4843   1415.59021     777.6307     473.4843
   1415.57495     776.4219     472.8680   1415.57495     776.4219     472.8680
   1415.55969     775.5137     473.2620   1415.55969     775.5137     473.2620
   1415.54443     774.1628     472.2456   1415.54443     774.1628     472.2456
   1415.52917     773.4612     472.8320   1415.52917     773.4612     472.8320
   1415.51392     772.2274     471.5051   1415.51392     772.2274     471.5051
   1415.49866     771.3934     471.9793   1415.49866     771.3934     471.9793
   1415.48340     769.1780     471.0220   1415.48340     769.1780     471.0220
   1415.46814     769.7988     470.8980   1415.46814     769.7988     470.8980
   1415.45288     768.9687     471.3745   1415.45288     768.9687     471.3745
   1415.43762     767.6763     471.0983   1415.43762     767.6763     471.0983
   1415.42236     765.6276     470.3740   1415.42236     765.6276     470.3740
   1415.40710     765.2804     469.2400   1415.40710     765.2804     469.2400
   1415.39185     763.5591     469.8763   1415.39185     763.5591     469.8763
   1415.37659     762.7452     469.1915   1415.37659     762.7452     469.1915
   1415.36133     761.2771     468.6371   1415.36133     761.2771     468.6371
   1415.34607     761.4377     468.7964   1415.34607     761.4377     468.7964
   1415.33081     759.3179     468.3447   1415.33081     759.3179     468.3447
   1415.31555     758.4205     467.3388   1415.31555     758.4205     467.3388
   1415.30029     756.9067     467.5145   1415.30029     756.9067     467.5145
   1415.28503     755.1725     466.8807   1415.28503     755.1725     466.8807
   1415.26978     753.7194     466.1360   1415.26978     753.7194     466.1360
   1415.25452     754.0352     465.8298   1415.25452     754.0352     465.8298
   1415.23926     751.3511     466.3004   1415.23926     751.3511     466.3004
   1415.22400     749.7287     465.4250   1415.22400     749.7287     465.4250
   1415.20874     749.0745     464.7475   1415.20874     749.0745     464.7475
   1415.19348     747.2188     464.2057   1415.19348     747.2188     464.2057
   1415.17822     748.5906     464.5637   1415.17822     748.5906     464.5637
   1415.16296     745.7983     463.8939   1415.16296     745.7983     463.8939
   1415.14771     742.9835     463.7687   1415.14771     742.9835     463.7687
   1415.13245     743.4567     463.5975   1415.13245     743.4567     463.5975
   1415.11719     739.7380     462.7575   1415.11719     739.7380     462.7575
   1415.10193     738.4479     462.1444   1415.10193     738.4479     462.1444
   1415.08667     736.9194     461.1867   1415.08667     736.9194     461.1867
   1415.07141     734.9465     460.8299   1415.07141     734.9465     460.8299
   1415.05615     735.2402     460.8905   1415.05615     735.2402     460.8905
   1415.04089     732.4392     459.4379   1415.04089     732.4392     459.4379
   1415.02563     731.8450     459.2565   1415.02563     731.8450     459.2565
   1415.01038     727.6003     457.8031   1415.01038     727.6003     457.8031
   1414.99512     727.2040     457.8733   1414.99512     727.2040     457.8733
   1414.97986     725.8663     457.1550   1414.97986     725.8663     457.1550
   1414.96460     724.3737     456.7301   1414.96460     724.3737     456.7301
   1414.94934     723.0110     456.6834   1414.94934     723.0110     456.6834
   1414.93408     720.7242     455.5390   1414.93408     720.7242     455.5390
   1414.91882     718.8481     454.4226   1414.91882     718.8481     454.4226
   1414.90356     717.4446     454.7441   1414.90356     717.4446     454.7441
   1414.88831     716.0751     453.5481   1414.88831     716.0751     453.5481
   1414.87305     713.7471     453.7684   1414.87305     713.7471     453.7684
   1414.85779     712.4887     451.9805   1414.85779     712.4887     451.9805
   1414.84253     710.0092     452.1640   1414.84253     710.0092     452.1640
   1414.82727     707.7358     450.9317   1414.82727     707.7358     450.9317
   1414.81201     705.8884     450.8120   1414.81201     705.8884     450.8120
   1414.79675     703.0386     448.1890   1414.79675     703.0386     448.1890
   1414.78149     701.2277     448.8498   1414.78149     701.2277     448.8498
   1414.76624     700.2007     448.3301   1414.76624     700.2007     448.3301
   1414.75098     696.9803     447.0704   1414.75098     696.9803     447.0704
   1414.73572     696.2709     446.3664   1414.73572     696.2709     446.3664
   1414.72046     694.4185     445.6744   1414.72046     694.4185     445.6744
   1414.70520     690.1539     444.7322   1414.70520     690.1539     444.7322
   1414.68994     689.5571     443.3236   1414.68994     689.5571     443.3236
   1414.67468     686.7282     443.6809   1414.67468     686.7282     443.6809
   1414.65942     685.5030     442.2424   1414.65942     685.5030     442.2424
   1414.64417     683.1643     441.1891   1414.64417     683.1643     441.1891
   1414.62891     681.8431     439.7803   1414.62891     681.8431     439.7803
   1414.61365     679.0391     439.7476   1414.61365     679.0391     439.7476
   1414.59839     677.0306     438.6057   1414.59839     677.0306     438.6057
   1414.58313     674.4461     437.5677   1414.58313     674.4461     437.5677
   1414.56787     672.0121     436.5864   1414.56787     672.0121     436.5864
   1414.55261     670.0193     435.7877   1414.55261     670.0193     435.7877
   1414.53735     667.2095     435.1443   1414.53735     667.2095     435.1443
   1414.52209     665.2646     433.6275   1414.52209     665.2646     433.6275
   1414.50684     662.5572     432.6848   1414.50684     662.5572     432.6848
   1414.49158     660.5705     432.1756   1414.49158     660.5705     432.1756
   1414.47632     657.1349     430.9212   1414.47632     657.1349     430.9212
   1414.46106     655.0938     430.2095   1414.46106     655.0938     430.2095
   1414.44580     652.5405     429.6438   1414.44580     652.5405     429.6438
   1414.43054     651.6392     427.8437   1414.43054     651.6392     427.8437
   1414.41528     648.3298     426.4922   1414.41528     648.3298     426.4922
   1414.40002     645.0601     425.9879   1414.40002     645.0601     425.9879
   1414.38477     642.5477     423.8746   1414.38477     642.5477     423.8746
   1414.36951     640.6740     423.0528   1414.36951     640.6740     423.0528
   1414.35425     637.9453     422.8854   1414.35425     637.9453     422.8854
   1414.33899     635.8628     421.4893   1414.33899     635.8628     421.4893
   1414.32373     632.4700     419.4838   1414.32373     632.4700     419.4838
   1414.30847     631.4943     418.1533   1414.30847     631.4943     418.1533
   1414.29321     627.6071     417.4306   1414.29321     627.6071     417.4306
   1414.27795     624.4116     416.2595   1414.27795     624.4116     416.2595
   1414.26270     621.5413     415.1183   1414.26270     621.5413     415.1183
   1414.24744     619.0710     413.6397   1414.24744     619.0710     413.6397
   1414.23218     616.7913     413.0065   1414.23218     616.7913     413.0065
   1414.21692     613.7776     410.9183   1414.21692     613.7776     410.9183
   1414.20166     610.7003     410.2990   1414.20166     610.7003     410.2990
   1414.18640     608.2229     408.9826   1414.18640     608.2229     408.9826
   1414.17114     606.6517     408.0819   1414.17114     606.6517     408.0819
   1414.15588     603.2677     406.6544   1414.15588     603.2677     406.6544
   1414.14062     600.6164     404.6433   1414.14062     600.6164     404.6433
   1414.12537     597.0405     403.5414   1414.12537     597.0405     403.5414
   1414.11011     595.0735     402.6478   1414.11011     595.0735     402.6478
   1414.09485     591.3338     401.2374   1414.09485     591.3338     401.2374
   1414.07959     589.6432     399.6547   1414.07959     589.6432     399.6547
   1414.06433     586.0488     398.2412   1414.06433     586.0488     398.2412
   1414.04907     582.6595     396.4053   1414.04907     582.6595     396.4053
   1414.03381     580.6638     395.4722   1414.03381     580.6638     395.4722
   1414.01855     578.5373     394.0305   1414.01855     578.5373     394.0305
   1414.00330     597.6903     400.5636   1414.00330     597.6903     400.5636
   1413.98804     573.4844     391.9800   1413.98804     573.4844     391.9800
   1413.97278     568.1631     389.9831   1413.97278     568.1631     389.9831
   1413.95752     565.3415     388.1720   1413.95752     565.3415     388.1720
   1413.94226     562.8290     387.5659   1413.94226     562.8290     387.5659
   1413.92700     559.7102     386.3879   1413.92700     559.7102     386.3879
   1413.91174     557.0532     383.8825   1413.91174     557.0532     383.8825
   1413.89648     553.7817     382.3319   1413.89648     553.7817     382.3319
   1413.88123     550.5863     380.7978   1413.88123     550.5863     380.7978
   1413.86597     547.3895     380.0538   1413.86597     547.3895     380.0538
   1413.85071     545.2845     378.3896   1413.85071     545.2845     378.3896
   1413.83545     541.2203     376.2976   1413.83545     541.2203     376.2976
   1413.82019     539.5357     375.4503   1413.82019     539.5357     375.4503
   1413.80493     535.9313     374.4288   1413.80493     535.9313     374.4288
   1413.78967     533.7087     372.2982   1413.78967     533.7087     372.2982
   1413.77441     530.9471     370.1509   1413.77441     530.9471     370.1509
   1413.75916     527.0919     368.9184   1413.75916     527.0919     368.9184
   1413.74390     524.5284     367.6331   1413.74390     524.5284     367.6331
   1413.72864     521.8690     366.1427   1413.72864     521.8690     366.1427
   1413.71338     517.9506     364.4727   1413.71338     517.9506     364.4727
   1413.69812     515.1613     362.3885   1413.69812     515.1613     362.3885
   1413.68286     511.9760     360.9285   1413.68286     511.9760     360.9285
   1413.66760     509.7078     359.3841   1413.66760     509.7078     359.3841
   1413.65234     505.3123     358.0365   1413.65234     505.3123     358.0365
   1413.63708     502.9386     356.5872   1413.63708     502.9386     356.5872
   1413.62183     499.3248     355.0175   1413.62183     499.3248     355.0175
   1413.60657     497.2638     353.1459   1413.60657     497.2638     353.1459
   1413.59131     493.9293     351.8419   1413.59131     493.9293     351.8419
   1413.57605     491.2993     350.3200   1413.57605     491.2993     350.3200
   1413.56079     488.5553     348.2952   1413.56079     488.5553     348.2952
   1413.54553     485.7405     346.9020   1413.54553     485.7405     346.9020
   1413.53027     481.7696     345.3480   1413.53027     481.7696     345.3480
   1413.51501     479.5160     343.9758   1413.51501     479.5160     343.9758
   1413.49976     476.9359     342.6938   1413.49976     476.9359     342.6938
   1413.48450     473.2946     340.7493   1413.48450     473.2946     340.7493
   1413.46924     471.1936     339.4323   1413.46924     471.1936     339.4323
   1413.45398     467.9942     337.8514   1413.45398     467.9942     337.8514
   1413.43872     464.2116     335.6014   1413.43872     464.2116     335.6014
   1413.42346     462.6960     334.4883   1413.42346     462.6960     334.4883
   1413.40820     459.2776     332.9068   1413.40820     459.2776     332.9068
   1413.39294     456.1456     331.2110   1413.39294     456.1456     331.2110
   1413.37769     453.7089     329.4594   1413.37769     453.7089     329.4594
   1413.36243     451.4810     328.1817   1413.36243     451.4810     328.1817
   1413.34717     448.9186     326.6394   1413.34717     448.9186     326.6394
   1413.33191     445.4978     325.4713   1413.33191     445.4978     325.4713
   1413.31665     443.3765     324.2104   1413.31665     443.3765     324.2104
   1413.30139     440.9350     322.1349   1413.30139     440.9350     322.1349
   1413.28613     438.3625     320.4047   1413.28613     438.3625     320.4047
   1413.27087     435.2649     319.4635   1413.27087     435.2649     319.4635
   1413.25562     432.5898     317.6341   1413.25562     432.5898     317.6341
   1413.24036     429.6379     316.2456   1413.24036     429.6379     316.2456
   1413.22510     427.7799     315.0633   1413.22510     427.7799     315.0633
   1413.20984     424.9243     313.3900   1413.20984     424.9243     313.3900
   1413.19458     422.8381     311.5674   1413.19458     422.8381     311.5674
   1413.17932     420.4780     310.5571   1413.17932     420.4780     310.5571
   1413.16406     418.0273     309.3761   1413.16406     418.0273     309.3761
   1413.14880     415.8658     307.7811   1413.14880     415.8658     307.7811
   1413.13354     413.4799     306.9374   1413.13354     413.4799     306.9374
   1413.11829     411.6192     305.0809   1413.11829     411.6192     305.0809
   1413.10303     408.3827     303.5556   1413.10303     408.3827     303.5556
   1413.08777     406.3272     302.2522   1413.08777     406.3272     302.2522
   1413.07251     404.4245     301.2384   1413.07251     404.4245     301.2384
   1413.05725     401.7752     299.5977   1413.05725     401.7752     299.5977
   1413.04199     400.5789     298.2042   1413.04199     400.5789     298.2042
   1413.02673     398.2781     297.0742   1413.02673     398.2781     297.0742
   1413.01147     396.0100     295.9875   1413.01147     396.0100     295.9875
   1412.99622     393.2130     294.2943   1412.99622     393.2130     294.2943
   1412.98096     392.5319     293.1711   1412.98096     392.5319     293.1711
   1412.96570     389.7426     292.1783   1412.96570     389.7426     292.1783
   1412.95044     387.7702     290.5593   1412.95044     387.7702     290.5593
   1412.93518     385.5282     289.7161   1412.93518     385.5282     289.7161
   1412.91992     384.1601     288.9555   1412.91992     384.1601     288.9555
   1412.90466     382.7014     287.5029   1412.90466     382.7014     287.5029
   1412.88940     380.1504     286.7579   1412.88940     380.1504     286.7579
   1412.87415     379.1351     285.6121   1412.87415     379.1351     285.6121
   1412.85889     377.5888     284.3915   1412.85889     377.5888     284.3915
   1412.84363     375.7251     283.1637   1412.84363     375.7251     283.1637
   1412.82837     374.6693     282.4132   1412.82837     374.6693     282.4132
   1412.81311     372.7675     281.3305   1412.81311     372.7675     281.3305
   1412.79785     371.4516     280.6735   1412.79785     371.4516     280.6735
   1412.78259     369.7458     279.4370   1412.78259     369.7458     279.4370
   1412.76733     368.0556     278.9496   1412.76733     368.0556     278.9496
   1412.75208     367.4217     277.9050   1412.75208     367.4217     277.9050
   1412.73682     365.7471     276.7727   1412.73682     365.7471     276.7727
   1412.72156     364.1629     276.4474   1412.72156     364.1629     276.4474
   1412.70630     363.6932     275.4307   1412.70630     363.6932     275.4307
   1412.69104     361.8044     274.9863   1412.69104     361.8044     274.9863
   1412.67578     360.8237     273.9566   1412.67578     360.8237     273.9566
   1412.66052     359.6378     273.8108   1412.66052     359.6378     273.8108
   1412.64526     359.6274     272.7003   1412.64526     359.6274     272.7003
   1412.63000     357.8625     272.3738   1412.63000     357.8625     272.3738
   1412.61475     357.4407     271.5135   1412.61475     357.4407     271.5135
   1412.59949     356.5604     271.1180   1412.59949     356.5604     271.1180
   1412.58423     355.9157     270.1483   1412.58423     355.9157     270.1483
   1412.56897     354.8090     269.8895   1412.56897     354.8090     269.8895
   1412.55371     354.7539     269.6228   1412.55371     354.7539     269.6228
   1412.53845     354.2320     269.0388   1412.53845     354.2320     269.0388
   1412.52319     353.6992     268.8738   1412.52319     353.6992     268.8738
   1412.50793     353.0156     268.6658   1412.50793     353.0156     268.6658
   1412.49268     353.3495     267.8807   1412.49268     353.3495     267.8807
   1412.47742     352.5495     267.5211   1412.47742     352.5495     267.5211
   1412.46216     351.7166     267.5771   1412.46216     351.7166     267.5771
   1412.44690     351.4730     267.2603   1412.44690     351.4730     267.2603
   1412.43164     351.4515     267.4135   1412.43164     351.4515     267.4135
   1412.41638     350.8934     267.2383   1412.41638     350.8934     267.2383
   1412.40112     351.1196     267.0945   1412.40112     351.1196     267.0945
   1412.38586     350.6812     266.5798   1412.38586     350.6812     266.5798
   1412.37061     351.2477     266.9426   1412.37061     351.2477     266.9426
   1412.35535     350.8101     266.8417   1412.35535     350.8101     266.8417
   1412.34009     351.0703     267.3323   1412.34009     351.0703     267.3323
   1412.32483     350.4647     267.2412   1412.32483     350.4647     267.2412
   1412.30957     351.2231     266.9824   1412.30957     351.2231     266.9824
   1412.29431     351.5410     267.2811   1412.29431     351.5410     267.2811
   1412.27905     351.8308     267.6666   1412.27905     351.8308     267.6666
   1412.26379     353.0185     267.6281   1412.26379     353.0185     267.6281
   1412.24854     352.1640     268.1909   1412.24854     352.1640     268.1909
   1412.23328     353.0924     268.2544   1412.23328     353.0924     268.2544
   1412.21802     353.4085     268.7454   1412.21802     353.4085     268.7454
   1412.20276     353.9383     269.2566   1412.20276     353.9383     269.2566