#     FILENAME=!Skynet_57528_lach-hhg-159_20521_20983.cyb.fits
#     BASENAME=Skynet_57528_lach-hhg-159_20521_20983
#     SRC_NAME=lach-hhg-159
#     OBSERVER=hhgmadison16_9500
#     DATE_OBS=2016-05-20T17:55:54.430
#        OBSID=20521
#      SCANNUM=20983
#          MJD=57528.7482
#          UTC=64643
#     SCANTYPE=track
#     DATAMODE=HIRES
#     TUNEFREQ=1420.0000
# Actual_FREQ1=1420.0000
# Actual_FREQ2=1420.0000
#    LO1Tuning=6870.000
#     RFFILTER=1355_1435
#        OBSBW=-15.6250
#        NCHAN=1024 
#        FOCUS=37.1368
#           RA=04:43:12.42
#          DEC=46:00:16.76
#      RA(hrs)=4.720100
#     DEC(deg)=46.004700
#    AZIM(deg)=15.610
#    ELEV(deg)=81.995
#     IFattens=10.00, 9.00
#      WARNING=None
#    TCAL_XL1=7.9635
#    TCAL_YR1=9.1340
#    TCAL_XL2=7.9635
#    TCAL_YR2=9.1340
#     TRX_XL1=11.7060
#     TRX_YR1=11.7060
#     TRX_XL2=11.7060
#     TRX_YR2=11.7060
#        TAVE=1.0000
#Freq1(MHz)          XL1          YR1  Freq2(MHz)          XL2          YR2 

   1427.81250     376.1449     341.1404   1427.81250     376.1449     341.1404
   1427.79724     376.1759     342.5718   1427.79724     376.1759     342.5718
   1427.78198     377.5950     344.3206   1427.78198     377.5950     344.3206
   1427.76672     378.2509     345.5903   1427.76672     378.2509     345.5903
   1427.75146     378.3492     347.7526   1427.75146     378.3492     347.7526
   1427.73621     378.8515     349.4863   1427.73621     378.8515     349.4863
   1427.72095     380.3307     351.4040   1427.72095     380.3307     351.4040
   1427.70569     380.6960     353.3346   1427.70569     380.6960     353.3346
   1427.69043     382.3173     355.1899   1427.69043     382.3173     355.1899
   1427.67517     382.8849     357.0697   1427.67517     382.8849     357.0697
   1427.65991     384.0203     358.8878   1427.65991     384.0203     358.8878
   1427.64465     385.6645     361.1171   1427.64465     385.6645     361.1171
   1427.62939     386.2385     363.0498   1427.62939     386.2385     363.0498
   1427.61414     387.8864     365.0927   1427.61414     387.8864     365.0927
   1427.59888     388.9574     367.1453   1427.59888     388.9574     367.1453
   1427.58362     390.6720     369.9718   1427.58362     390.6720     369.9718
   1427.56836     391.6691     371.7740   1427.56836     391.6691     371.7740
   1427.55310     393.1434     374.1607   1427.55310     393.1434     374.1607
   1427.53784     395.0102     376.3895   1427.53784     395.0102     376.3895
   1427.52258     396.5261     378.8251   1427.52258     396.5261     378.8251
   1427.50732     397.7845     381.1763   1427.50732     397.7845     381.1763
   1427.49207     399.6841     384.3886   1427.49207     399.6841     384.3886
   1427.47681     400.8293     385.6840   1427.47681     400.8293     385.6840
   1427.46155     403.6261     388.5916   1427.46155     403.6261     388.5916
   1427.44629     404.8905     391.1674   1427.44629     404.8905     391.1674
   1427.43103     406.4653     393.3679   1427.43103     406.4653     393.3679
   1427.41577     408.8107     396.1623   1427.41577     408.8107     396.1623
   1427.40051     410.0347     399.2509   1427.40051     410.0347     399.2509
   1427.38525     412.4428     401.8126   1427.38525     412.4428     401.8126
   1427.37000     414.5785     403.6099   1427.37000     414.5785     403.6099
   1427.35474     415.9725     406.3394   1427.35474     415.9725     406.3394
   1427.33948     418.8132     409.3717   1427.33948     418.8132     409.3717
   1427.32422     420.5757     412.7875   1427.32422     420.5757     412.7875
   1427.30896     422.4151     414.3685   1427.30896     422.4151     414.3685
   1427.29370     425.3223     417.5711   1427.29370     425.3223     417.5711
   1427.27844     426.4662     420.4399   1427.27844     426.4662     420.4399
   1427.26318     429.1711     422.5795   1427.26318     429.1711     422.5795
   1427.24792     431.7998     425.5300   1427.24792     431.7998     425.5300
   1427.23267     433.4547     428.6456   1427.23267     433.4547     428.6456
   1427.21741     436.4456     431.2266   1427.21741     436.4456     431.2266
   1427.20215     439.0371     433.7386   1427.20215     439.0371     433.7386
   1427.18689     441.0249     436.3895   1427.18689     441.0249     436.3895
   1427.17163     443.1700     439.2319   1427.17163     443.1700     439.2319
   1427.15637     445.9981     442.0872   1427.15637     445.9981     442.0872
   1427.14111     448.8325     445.0424   1427.14111     448.8325     445.0424
   1427.12585     450.7188     447.8786   1427.12585     450.7188     447.8786
   1427.11060     454.3521     451.0407   1427.11060     454.3521     451.0407
   1427.09534     456.2376     453.7295   1427.09534     456.2376     453.7295
   1427.08008     459.4644     456.1648   1427.08008     459.4644     456.1648
   1427.06482     462.3526     459.2180   1427.06482     462.3526     459.2180
   1427.04956     464.0727     462.3158   1427.04956     464.0727     462.3158
   1427.03430     467.4676     464.8800   1427.03430     467.4676     464.8800
   1427.01904     469.8389     467.9741   1427.01904     469.8389     467.9741
   1427.00378     472.3026     469.5739   1427.00378     472.3026     469.5739
   1426.98853     475.7991     472.5060   1426.98853     475.7991     472.5060
   1426.97327     477.9843     475.5220   1426.97327     477.9843     475.5220
   1426.95801     481.1023     478.5607   1426.95801     481.1023     478.5607
   1426.94275     483.4572     481.1370   1426.94275     483.4572     481.1370
   1426.92749     487.4730     484.8098   1426.92749     487.4730     484.8098
   1426.91223     489.6448     486.1382   1426.91223     489.6448     486.1382
   1426.89697     493.1399     489.1090   1426.89697     493.1399     489.1090
   1426.88171     495.5848     491.8965   1426.88171     495.5848     491.8965
   1426.86646     498.5441     494.9656   1426.86646     498.5441     494.9656
   1426.85120     501.9666     497.0201   1426.85120     501.9666     497.0201
   1426.83594     504.1639     499.8199   1426.83594     504.1639     499.8199
   1426.82068     507.4492     502.7019   1426.82068     507.4492     502.7019
   1426.80542     511.3907     504.7720   1426.80542     511.3907     504.7720
   1426.79016     513.4418     508.1759   1426.79016     513.4418     508.1759
   1426.77490     516.5078     511.1129   1426.77490     516.5078     511.1129
   1426.75964     519.3168     512.7373   1426.75964     519.3168     512.7373
   1426.74438     521.7380     515.3252   1426.74438     521.7380     515.3252
   1426.72913     526.0426     517.7651   1426.72913     526.0426     517.7651
   1426.71387     529.0109     520.1051   1426.71387     529.0109     520.1051
   1426.69861     531.8503     523.5110   1426.69861     531.8503     523.5110
   1426.68335     535.0263     525.2812   1426.68335     535.0263     525.2812
   1426.66809     537.8168     527.1143   1426.66809     537.8168     527.1143
   1426.65283     540.3123     529.1514   1426.65283     540.3123     529.1514
   1426.63757     544.3044     531.8411   1426.63757     544.3044     531.8411
   1426.62231     549.8993     538.2823   1426.62231     549.8993     538.2823
   1426.60706     550.3585     538.6990   1426.60706     550.3585     538.6990
   1426.59180     552.4426     539.4442   1426.59180     552.4426     539.4442
   1426.57654     556.6015     540.5077   1426.57654     556.6015     540.5077
   1426.56128     558.6980     543.4990   1426.56128     558.6980     543.4990
   1426.54602     561.7779     545.3856   1426.54602     561.7779     545.3856
   1426.53076     565.0282     548.0069   1426.53076     565.0282     548.0069
   1426.51550     568.3848     549.5469   1426.51550     568.3848     549.5469
   1426.50024     571.6208     552.3986   1426.50024     571.6208     552.3986
   1426.48499     574.4397     553.6517   1426.48499     574.4397     553.6517
   1426.46973     576.7992     555.5615   1426.46973     576.7992     555.5615
   1426.45447     580.3845     558.2746   1426.45447     580.3845     558.2746
   1426.43921     583.8845     559.8366   1426.43921     583.8845     559.8366
   1426.42395     586.9801     562.3848   1426.42395     586.9801     562.3848
   1426.40869     590.4852     564.6606   1426.40869     590.4852     564.6606
   1426.39343     592.9281     566.0281   1426.39343     592.9281     566.0281
   1426.37817     595.4482     568.4163   1426.37817     595.4482     568.4163
   1426.36292     598.1591     569.7493   1426.36292     598.1591     569.7493
   1426.34766     601.5406     571.8382   1426.34766     601.5406     571.8382
   1426.33240     604.9755     573.3715   1426.33240     604.9755     573.3715
   1426.31714     607.6735     575.4317   1426.31714     607.6735     575.4317
   1426.30188     610.1243     577.4466   1426.30188     610.1243     577.4466
   1426.28662     612.4039     578.4412   1426.28662     612.4039     578.4412
   1426.27136     616.7148     579.9395   1426.27136     616.7148     579.9395
   1426.25610     618.1979     581.5608   1426.25610     618.1979     581.5608
   1426.24084     622.3179     582.3628   1426.24084     622.3179     582.3628
   1426.22559     624.4501     585.1766   1426.22559     624.4501     585.1766
   1426.21033     627.4124     585.6015   1426.21033     627.4124     585.6015
   1426.19507     629.4775     587.5243   1426.19507     629.4775     587.5243
   1426.17981     633.7830     588.7411   1426.17981     633.7830     588.7411
   1426.16455     636.4731     591.5305   1426.16455     636.4731     591.5305
   1426.14929     639.0903     592.6091   1426.14929     639.0903     592.6091
   1426.13403     641.3380     593.9956   1426.13403     641.3380     593.9956
   1426.11877     643.6275     594.4741   1426.11877     643.6275     594.4741
   1426.10352     646.5905     596.5598   1426.10352     646.5905     596.5598
   1426.08826     649.5217     595.7250   1426.08826     649.5217     595.7250
   1426.07300     652.3997     598.2277   1426.07300     652.3997     598.2277
   1426.05774     653.9413     599.8691   1426.05774     653.9413     599.8691
   1426.04248     657.0621     600.4273   1426.04248     657.0621     600.4273
   1426.02722     659.1334     601.6906   1426.02722     659.1334     601.6906
   1426.01196     662.9950     604.2641   1426.01196     662.9950     604.2641
   1425.99670     663.8287     603.6212   1425.99670     663.8287     603.6212
   1425.98145     666.7817     605.3448   1425.98145     666.7817     605.3448
   1425.96619     669.6968     606.9646   1425.96619     669.6968     606.9646
   1425.95093     672.2782     607.7971   1425.95093     672.2782     607.7971
   1425.93567     673.5693     608.2453   1425.93567     673.5693     608.2453
   1425.92041     676.4333     609.5532   1425.92041     676.4333     609.5532
   1425.90515     678.9736     609.8427   1425.90515     678.9736     609.8427
   1425.88989     681.2780     611.4079   1425.88989     681.2780     611.4079
   1425.87463     683.3857     612.5274   1425.87463     683.3857     612.5274
   1425.85938     685.5755     613.7276   1425.85938     685.5755     613.7276
   1425.84412     688.5636     615.0779   1425.84412     688.5636     615.0779
   1425.82886     690.5566     614.5293   1425.82886     690.5566     614.5293
   1425.81360     692.5380     615.9270   1425.81360     692.5380     615.9270
   1425.79834     693.4615     615.5524   1425.79834     693.4615     615.5524
   1425.78308     697.9200     618.9014   1425.78308     697.9200     618.9014
   1425.76782     698.6407     618.7100   1425.76782     698.6407     618.7100
   1425.75256     700.1155     619.6593   1425.75256     700.1155     619.6593
   1425.73730     702.5800     619.3510   1425.73730     702.5800     619.3510
   1425.72205     704.2004     619.7650   1425.72205     704.2004     619.7650
   1425.70679     706.4169     621.2546   1425.70679     706.4169     621.2546
   1425.69153     707.8414     621.7726   1425.69153     707.8414     621.7726
   1425.67627     710.6854     622.5051   1425.67627     710.6854     622.5051
   1425.66101     712.4899     623.3725   1425.66101     712.4899     623.3725
   1425.64575     713.8244     622.7666   1425.64575     713.8244     622.7666
   1425.63049     715.8412     624.3384   1425.63049     715.8412     624.3384
   1425.61523     717.5040     625.1127   1425.61523     717.5040     625.1127
   1425.59998     719.3072     624.6352   1425.59998     719.3072     624.6352
   1425.58472     720.4277     625.7272   1425.58472     720.4277     625.7272
   1425.56946     721.5273     626.8970   1425.56946     721.5273     626.8970
   1425.55420     724.0761     626.6520   1425.55420     724.0761     626.6520
   1425.53894     724.8051     627.2469   1425.53894     724.8051     627.2469
   1425.52368     726.9574     627.8005   1425.52368     726.9574     627.8005
   1425.50842     727.8817     627.6055   1425.50842     727.8817     627.6055
   1425.49316     730.3420     628.2559   1425.49316     730.3420     628.2559
   1425.47791     731.3022     628.7382   1425.47791     731.3022     628.7382
   1425.46265     733.5076     628.2661   1425.46265     733.5076     628.2661
   1425.44739     734.5845     629.5466   1425.44739     734.5845     629.5466
   1425.43213     735.9119     629.5383   1425.43213     735.9119     629.5383
   1425.41687     737.3863     629.9187   1425.41687     737.3863     629.9187
   1425.40161     737.9811     630.6941   1425.40161     737.9811     630.6941
   1425.38635     740.5212     631.2439   1425.38635     740.5212     631.2439
   1425.37109     741.2597     630.1454   1425.37109     741.2597     630.1454
   1425.35583     740.9646     631.5163   1425.35583     740.9646     631.5163
   1425.34058     741.9048     630.7624   1425.34058     741.9048     630.7624
   1425.32532     744.9122     631.0579   1425.32532     744.9122     631.0579
   1425.31006     746.0281     630.9883   1425.31006     746.0281     630.9883
   1425.29480     746.4186     632.1417   1425.29480     746.4186     632.1417
   1425.27954     748.7229     632.6465   1425.27954     748.7229     632.6465
   1425.26428     748.4494     632.2734   1425.26428     748.4494     632.2734
   1425.24902     748.7595     631.7207   1425.24902     748.7595     631.7207
   1425.23376     751.4499     631.3769   1425.23376     751.4499     631.3769
   1425.21851     752.4725     632.2827   1425.21851     752.4725     632.2827
   1425.20325     751.8170     631.8126   1425.20325     751.8170     631.8126
   1425.18799     753.7630     633.2614   1425.18799     753.7630     633.2614
   1425.17273     753.7095     631.6470   1425.17273     753.7095     631.6470
   1425.15747     755.1982     633.6275   1425.15747     755.1982     633.6275
   1425.14221     756.0193     632.6511   1425.14221     756.0193     632.6511
   1425.12695     755.8112     631.4316   1425.12695     755.8112     631.4316
   1425.11169     758.4283     631.7333   1425.11169     758.4283     631.7333
   1425.09644     757.1014     632.2145   1425.09644     757.1014     632.2145
   1425.08118     759.0930     631.1406   1425.08118     759.0930     631.1406
   1425.06592     758.8898     631.2997   1425.06592     758.8898     631.2997
   1425.05066     760.4164     631.3155   1425.05066     760.4164     631.3155
   1425.03540     760.0756     631.7515   1425.03540     760.0756     631.7515
   1425.02014     761.2395     632.3087   1425.02014     761.2395     632.3087
   1425.00488     762.6968     631.6033   1425.00488     762.6968     631.6033
   1424.98962     761.9352     631.8329   1424.98962     761.9352     631.8329
   1424.97437     762.9246     631.7689   1424.97437     762.9246     631.7689
   1424.95911     763.5519     631.3094   1424.95911     763.5519     631.3094
   1424.94385     763.6559     630.4626   1424.94385     763.6559     630.4626
   1424.92859     764.5876     631.1894   1424.92859     764.5876     631.1894
   1424.91333     764.0778     631.2092   1424.91333     764.0778     631.2092
   1424.89807     764.5095     631.2167   1424.89807     764.5095     631.2167
   1424.88281     765.3820     630.1962   1424.88281     765.3820     630.1962
   1424.86755     765.9626     629.6063   1424.86755     765.9626     629.6063
   1424.85229     766.0674     629.4022   1424.85229     766.0674     629.4022
   1424.83704     765.4203     629.6948   1424.83704     765.4203     629.6948
   1424.82178     765.2726     629.4812   1424.82178     765.2726     629.4812
   1424.80652     765.9539     629.4452   1424.80652     765.9539     629.4452
   1424.79126     765.3728     629.4937   1424.79126     765.3728     629.4937
   1424.77600     766.6010     628.9568   1424.77600     766.6010     628.9568
   1424.76074     766.5171     628.1337   1424.76074     766.5171     628.1337
   1424.74548     767.7394     627.8905   1424.74548     767.7394     627.8905
   1424.73022     767.1650     628.0800   1424.73022     767.1650     628.0800
   1424.71497     767.1518     628.2347   1424.71497     767.1518     628.2347
   1424.69971     766.6955     627.2846   1424.69971     766.6955     627.2846
   1424.68445     767.5142     626.7158   1424.68445     767.5142     626.7158
   1424.66919     767.0746     626.9852   1424.66919     767.0746     626.9852
   1424.65393     767.2782     626.3828   1424.65393     767.2782     626.3828
   1424.63867     767.5370     625.6472   1424.63867     767.5370     625.6472
   1424.62341     767.4319     626.3118   1424.62341     767.4319     626.3118
   1424.60815     767.4521     626.0728   1424.60815     767.4521     626.0728
   1424.59290     767.6360     624.8534   1424.59290     767.6360     624.8534
   1424.57764     767.8725     624.4611   1424.57764     767.8725     624.4611
   1424.56238     766.8923     623.7757   1424.56238     766.8923     623.7757
   1424.54712     767.5830     623.9506   1424.54712     767.5830     623.9506
   1424.53186     766.5662     623.6066   1424.53186     766.5662     623.6066
   1424.51660     767.7257     623.6005   1424.51660     767.7257     623.6005
   1424.50134     767.3079     622.5886   1424.50134     767.3079     622.5886
   1424.48608     767.1031     621.4716   1424.48608     767.1031     621.4716
   1424.47083     765.1849     622.1312   1424.47083     765.1849     622.1312
   1424.45557     766.7172     621.4078   1424.45557     766.7172     621.4078
   1424.44031     766.9711     621.2000   1424.44031     766.9711     621.2000
   1424.42505     765.8364     621.2218   1424.42505     765.8364     621.2218
   1424.40979     765.0178     619.7235   1424.40979     765.0178     619.7235
   1424.39453     765.4221     620.3575   1424.39453     765.4221     620.3575
   1424.37927     765.0439     619.1678   1424.37927     765.0439     619.1678
   1424.36401     765.8857     618.9735   1424.36401     765.8857     618.9735
   1424.34875     766.4906     618.3929   1424.34875     766.4906     618.3929
   1424.33350     764.8099     619.0161   1424.33350     764.8099     619.0161
   1424.31824     765.2321     619.5037   1424.31824     765.2321     619.5037
   1424.30298     765.3859     617.1318   1424.30298     765.3859     617.1318
   1424.28772     764.6836     616.8649   1424.28772     764.6836     616.8649
   1424.27246     763.8968     617.0897   1424.27246     763.8968     617.0897
   1424.25720     763.4407     616.4173   1424.25720     763.4407     616.4173
   1424.24194     764.4669     614.9050   1424.24194     764.4669     614.9050
   1424.22668     762.2319     615.2414   1424.22668     762.2319     615.2414
   1424.21143     762.5059     614.7370   1424.21143     762.5059     614.7370
   1424.19617     762.6428     614.3462   1424.19617     762.6428     614.3462
   1424.18091     762.2010     613.0488   1424.18091     762.2010     613.0488
   1424.16565     760.9280     612.7828   1424.16565     760.9280     612.7828
   1424.15039     762.4913     612.0418   1424.15039     762.4913     612.0418
   1424.13513     761.1616     612.6126   1424.13513     761.1616     612.6126
   1424.11987     759.6894     611.6921   1424.11987     759.6894     611.6921
   1424.10461     759.7757     611.9517   1424.10461     759.7757     611.9517
   1424.08936     759.6144     610.7749   1424.08936     759.6144     610.7749
   1424.07410     758.8138     610.0568   1424.07410     758.8138     610.0568
   1424.05884     758.9217     609.3907   1424.05884     758.9217     609.3907
   1424.04358     757.8978     609.9066   1424.04358     757.8978     609.9066
   1424.02832     757.0281     609.5439   1424.02832     757.0281     609.5439
   1424.01306     757.0687     607.8898   1424.01306     757.0687     607.8898
   1423.99780     756.4752     606.7515   1423.99780     756.4752     606.7515
   1423.98254     757.8300     606.9821   1423.98254     757.8300     606.9821
   1423.96729     757.4800     606.4056   1423.96729     757.4800     606.4056
   1423.95203     756.5261     606.2035   1423.95203     756.5261     606.2035
   1423.93677     756.4598     606.2439   1423.93677     756.4598     606.2439
   1423.92151     756.0600     604.8625   1423.92151     756.0600     604.8625
   1423.90625     754.4104     604.5107   1423.90625     754.4104     604.5107
   1423.89099     754.3990     603.7906   1423.89099     754.3990     603.7906
   1423.87573     753.9100     603.3659   1423.87573     753.9100     603.3659
   1423.86047     754.0850     602.5330   1423.86047     754.0850     602.5330
   1423.84521     752.6624     602.1979   1423.84521     752.6624     602.1979
   1423.82996     753.1877     601.8457   1423.82996     753.1877     601.8457
   1423.81470     753.4938     600.1191   1423.81470     753.4938     600.1191
   1423.79944     751.7419     599.5676   1423.79944     751.7419     599.5676
   1423.78418     751.3486     600.1161   1423.78418     751.3486     600.1161
   1423.76892     751.3505     598.1022   1423.76892     751.3505     598.1022
   1423.75366     749.5434     596.9473   1423.75366     749.5434     596.9473
   1423.73840     749.1600     598.5739   1423.73840     749.1600     598.5739
   1423.72314     749.0609     598.0211   1423.72314     749.0609     598.0211
   1423.70789     750.1359     597.5417   1423.70789     750.1359     597.5417
   1423.69263     748.1774     595.9467   1423.69263     748.1774     595.9467
   1423.67737     747.9425     595.4602   1423.67737     747.9425     595.4602
   1423.66211     747.6852     594.2400   1423.66211     747.6852     594.2400
   1423.64685     748.1468     594.2062   1423.64685     748.1468     594.2062
   1423.63159     748.1111     593.1097   1423.63159     748.1111     593.1097
   1423.61633     746.4189     592.3504   1423.61633     746.4189     592.3504
   1423.60107     745.9362     592.9778   1423.60107     745.9362     592.9778
   1423.58582     744.7722     592.1038   1423.58582     744.7722     592.1038
   1423.57056     745.2744     591.2499   1423.57056     745.2744     591.2499
   1423.55530     744.8472     591.6776   1423.55530     744.8472     591.6776
   1423.54004     745.2236     589.9742   1423.54004     745.2236     589.9742
   1423.52478     743.7682     589.2810   1423.52478     743.7682     589.2810
   1423.50952     743.2788     589.6591   1423.50952     743.2788     589.6591
   1423.49426     743.1484     588.1509   1423.49426     743.1484     588.1509
   1423.47900     742.3884     587.4323   1423.47900     742.3884     587.4323
   1423.46375     741.9963     586.0840   1423.46375     741.9963     586.0840
   1423.44849     740.6805     587.2852   1423.44849     740.6805     587.2852
   1423.43323     740.9610     585.2174   1423.43323     740.9610     585.2174
   1423.41797     740.6187     584.3730   1423.41797     740.6187     584.3730
   1423.40271     740.5187     583.9418   1423.40271     740.5187     583.9418
   1423.38745     739.9091     582.8489   1423.38745     739.9091     582.8489
   1423.37219     740.0552     583.0054   1423.37219     740.0552     583.0054
   1423.35693     740.4675     582.7107   1423.35693     740.4675     582.7107
   1423.34167     739.2590     582.0320   1423.34167     739.2590     582.0320
   1423.32642     739.4196     579.8107   1423.32642     739.4196     579.8107
   1423.31116     737.3148     581.1069   1423.31116     737.3148     581.1069
   1423.29590     737.7502     579.2975   1423.29590     737.7502     579.2975
   1423.28064     737.2969     578.6172   1423.28064     737.2969     578.6172
   1423.26538     737.8063     577.7980   1423.26538     737.8063     577.7980
   1423.25012     737.2906     577.4224   1423.25012     737.2906     577.4224
   1423.23486     737.1169     576.9633   1423.23486     737.1169     576.9633
   1423.21960     736.6841     576.8177   1423.21960     736.6841     576.8177
   1423.20435     737.0972     575.7148   1423.20435     737.0972     575.7148
   1423.18909     735.6906     573.8933   1423.18909     735.6906     573.8933
   1423.17383     735.4009     573.4939   1423.17383     735.4009     573.4939
   1423.15857     734.9794     572.3081   1423.15857     734.9794     572.3081
   1423.14331     734.3888     572.2080   1423.14331     734.3888     572.2080
   1423.12805     733.5913     572.3134   1423.12805     733.5913     572.3134
   1423.11279     734.2180     571.4269   1423.11279     734.2180     571.4269
   1423.09753     732.5732     570.8151   1423.09753     732.5732     570.8151
   1423.08228     733.0650     570.0465   1423.08228     733.0650     570.0465
   1423.06702     732.9113     570.4020   1423.06702     732.9113     570.4020
   1423.05176     732.4932     568.5057   1423.05176     732.4932     568.5057
   1423.03650     732.3293     568.4350   1423.03650     732.3293     568.4350
   1423.02124     731.2482     567.3334   1423.02124     731.2482     567.3334
   1423.00598     732.0685     566.6696   1423.00598     732.0685     566.6696
   1422.99072     731.3638     566.0444   1422.99072     731.3638     566.0444
   1422.97546     730.5160     565.7455   1422.97546     730.5160     565.7455
   1422.96021     731.6152     563.6191   1422.96021     731.6152     563.6191
   1422.94495     730.2963     564.5435   1422.94495     730.2963     564.5435
   1422.92969     730.1297     562.2617   1422.92969     730.1297     562.2617
   1422.91443     730.2859     562.0525   1422.91443     730.2859     562.0525
   1422.89917     730.3312     560.7173   1422.89917     730.3312     560.7173
   1422.88391     728.7814     559.6162   1422.88391     728.7814     559.6162
   1422.86865     729.9001     558.8411   1422.86865     729.9001     558.8411
   1422.85339     728.4609     559.9205   1422.85339     728.4609     559.9205
   1422.83813     728.2296     558.1182   1422.83813     728.2296     558.1182
   1422.82288     728.6295     557.7691   1422.82288     728.6295     557.7691
   1422.80762     728.6254     556.5392   1422.80762     728.6254     556.5392
   1422.79236     728.4893     555.7903   1422.79236     728.4893     555.7903
   1422.77710     728.5656     555.5184   1422.77710     728.5656     555.5184
   1422.76184     728.9261     555.0588   1422.76184     728.9261     555.0588
   1422.74658     727.9852     553.4438   1422.74658     727.9852     553.4438
   1422.73132     728.7613     553.3884   1422.73132     728.7613     553.3884
   1422.71606     726.5946     552.1897   1422.71606     726.5946     552.1897
   1422.70081     726.7682     551.2761   1422.70081     726.7682     551.2761
   1422.68555     726.4088     551.3306   1422.68555     726.4088     551.3306
   1422.67029     726.8106     549.0395   1422.67029     726.8106     549.0395
   1422.65503     726.8057     550.2559   1422.65503     726.8057     550.2559
   1422.63977     726.3802     548.3741   1422.63977     726.3802     548.3741
   1422.62451     726.4896     547.7975   1422.62451     726.4896     547.7975
   1422.60925     724.9463     546.9481   1422.60925     724.9463     546.9481
   1422.59399     726.3184     546.0554   1422.59399     726.3184     546.0554
   1422.57874     725.0500     545.5273   1422.57874     725.0500     545.5273
   1422.56348     725.2634     544.6640   1422.56348     725.2634     544.6640
   1422.54822     725.2808     543.8948   1422.54822     725.2808     543.8948
   1422.53296     724.3091     542.8891   1422.53296     724.3091     542.8891
   1422.51770     725.0878     542.5390   1422.51770     725.0878     542.5390
   1422.50244     724.4073     541.7157   1422.50244     724.4073     541.7157
   1422.48718     723.5723     540.8315   1422.48718     723.5723     540.8315
   1422.47192     723.9486     540.6909   1422.47192     723.9486     540.6909
   1422.45667     724.3663     539.3937   1422.45667     724.3663     539.3937
   1422.44141     724.3878     537.3901   1422.44141     724.3878     537.3901
   1422.42615     723.7250     537.1422   1422.42615     723.7250     537.1422
   1422.41089     723.4846     536.4284   1422.41089     723.4846     536.4284
   1422.39563     724.1271     536.6190   1422.39563     724.1271     536.6190
   1422.38037     723.4523     535.2294   1422.38037     723.4523     535.2294
   1422.36511     722.9218     535.0286   1422.36511     722.9218     535.0286
   1422.34985     723.3840     533.5063   1422.34985     723.3840     533.5063
   1422.33459     723.8325     533.5161   1422.33459     723.8325     533.5161
   1422.31934     724.1375     532.2305   1422.31934     724.1375     532.2305
   1422.30408     723.2908     532.2607   1422.30408     723.2908     532.2607
   1422.28882     723.5165     530.4619   1422.28882     723.5165     530.4619
   1422.27356     722.5195     529.4732   1422.27356     722.5195     529.4732
   1422.25830     722.8234     528.4827   1422.25830     722.8234     528.4827
   1422.24304     723.5842     527.6968   1422.24304     723.5842     527.6968
   1422.22778     723.1157     527.2318   1422.22778     723.1157     527.2318
   1422.21252     721.6130     525.9111   1422.21252     721.6130     525.9111
   1422.19727     721.9132     525.3850   1422.19727     721.9132     525.3850
   1422.18201     722.9453     525.9547   1422.18201     722.9453     525.9547
   1422.16675     722.6374     523.5380   1422.16675     722.6374     523.5380
   1422.15149     722.6686     522.7644   1422.15149     722.6686     522.7644
   1422.13623     721.5446     522.1584   1422.13623     721.5446     522.1584
   1422.12097     720.6852     521.3891   1422.12097     720.6852     521.3891
   1422.10571     721.7958     520.1170   1422.10571     721.7958     520.1170
   1422.09045     721.4779     520.4739   1422.09045     721.4779     520.4739
   1422.07520     721.8081     519.5441   1422.07520     721.8081     519.5441
   1422.05994     722.5614     518.7825   1422.05994     722.5614     518.7825
   1422.04468     721.8656     516.7409   1422.04468     721.8656     516.7409
   1422.02942     720.9667     516.9821   1422.02942     720.9667     516.9821
   1422.01416     721.2624     514.6481   1422.01416     721.2624     514.6481
   1421.99890     721.3524     515.3895   1421.99890     721.3524     515.3895
   1421.98364     721.1799     513.8973   1421.98364     721.1799     513.8973
   1421.96838     722.2701     513.4282   1421.96838     722.2701     513.4282
   1421.95312     720.7812     512.6901   1421.95312     720.7812     512.6901
   1421.93787     720.7941     510.9965   1421.93787     720.7941     510.9965
   1421.92261     720.0552     510.3626   1421.92261     720.0552     510.3626
   1421.90735     720.6233     509.4055   1421.90735     720.6233     509.4055
   1421.89209     721.9005     509.1020   1421.89209     721.9005     509.1020
   1421.87683     721.2690     508.1974   1421.87683     721.2690     508.1974
   1421.86157     720.4205     507.1415   1421.86157     720.4205     507.1415
   1421.84631     720.4113     506.7609   1421.84631     720.4113     506.7609
   1421.83105     720.6055     505.3154   1421.83105     720.6055     505.3154
   1421.81580     721.3875     504.9471   1421.81580     721.3875     504.9471
   1421.80054     720.2305     504.3590   1421.80054     720.2305     504.3590
   1421.78528     719.9688     502.1700   1421.78528     719.9688     502.1700
   1421.77002     720.4719     502.2057   1421.77002     720.4719     502.2057
   1421.75476     719.8005     500.7415   1421.75476     719.8005     500.7415
   1421.73950     720.3069     499.8233   1421.73950     720.3069     499.8233
   1421.72424     720.3011     500.2681   1421.72424     720.3011     500.2681
   1421.70898     720.1063     499.2168   1421.70898     720.1063     499.2168
   1421.69373     719.9052     498.9475   1421.69373     719.9052     498.9475
   1421.67847     719.5786     497.8238   1421.67847     719.5786     497.8238
   1421.66321     718.8716     495.9516   1421.66321     718.8716     495.9516
   1421.64795     720.1268     495.2152   1421.64795     720.1268     495.2152
   1421.63269     719.0286     494.9734   1421.63269     719.0286     494.9734
   1421.61743     720.6608     493.4833   1421.61743     720.6608     493.4833
   1421.60217     719.5522     493.0123   1421.60217     719.5522     493.0123
   1421.58691     718.6931     491.4174   1421.58691     718.6931     491.4174
   1421.57166     719.4558     491.1368   1421.57166     719.4558     491.1368
   1421.55640     719.9487     490.5319   1421.55640     719.9487     490.5319
   1421.54114     720.4161     490.1198   1421.54114     720.4161     490.1198
   1421.52588     718.1924     489.0678   1421.52588     718.1924     489.0678
   1421.51062     718.3906     487.9579   1421.51062     718.3906     487.9579
   1421.49536     719.2476     486.7468   1421.49536     719.2476     486.7468
   1421.48010     717.9686     486.3933   1421.48010     717.9686     486.3933
   1421.46484     718.7589     485.0508   1421.46484     718.7589     485.0508
   1421.44958     718.0878     483.5786   1421.44958     718.0878     483.5786
   1421.43433     718.3021     484.1400   1421.43433     718.3021     484.1400
   1421.41907     717.5114     482.5588   1421.41907     717.5114     482.5588
   1421.40381     718.5728     481.5180   1421.40381     718.5728     481.5180
   1421.38855     718.8193     480.8677   1421.38855     718.8193     480.8677
   1421.37329     717.2578     480.4897   1421.37329     717.2578     480.4897
   1421.35803     716.9778     479.4733   1421.35803     716.9778     479.4733
   1421.34277     717.0811     478.4207   1421.34277     717.0811     478.4207
   1421.32751     717.2330     477.0270   1421.32751     717.2330     477.0270
   1421.31226     717.1947     476.4588   1421.31226     717.1947     476.4588
   1421.29700     716.9882     476.2787   1421.29700     716.9882     476.2787
   1421.28174     716.5530     474.7628   1421.28174     716.5530     474.7628
   1421.26648     717.1807     473.4849   1421.26648     717.1807     473.4849
   1421.25122     716.3046     472.8067   1421.25122     716.3046     472.8067
   1421.23596     715.8051     471.8134   1421.23596     715.8051     471.8134
   1421.22070     716.2096     471.1202   1421.22070     716.2096     471.1202
   1421.20544     714.9021     470.8253   1421.20544     714.9021     470.8253
   1421.19019     716.9577     469.7446   1421.19019     716.9577     469.7446
   1421.17493     715.1241     469.1734   1421.17493     715.1241     469.1734
   1421.15967     715.4872     466.9685   1421.15967     715.4872     466.9685
   1421.14441     715.3744     465.9868   1421.14441     715.3744     465.9868
   1421.12915     715.3896     466.5521   1421.12915     715.3896     466.5521
   1421.11389     716.4610     465.5434   1421.11389     716.4610     465.5434
   1421.09863     714.5765     464.4598   1421.09863     714.5765     464.4598
   1421.08337     715.8432     462.2985   1421.08337     715.8432     462.2985
   1421.06812     713.7568     462.2070   1421.06812     713.7568     462.2070
   1421.05286     715.1273     461.4798   1421.05286     715.1273     461.4798
   1421.03760     714.5022     461.2160   1421.03760     714.5022     461.2160
   1421.02234     714.2263     460.8823   1421.02234     714.2263     460.8823
   1421.00708     714.9313     459.6893   1421.00708     714.9313     459.6893
   1420.99182     715.1844     458.5236   1420.99182     715.1844     458.5236
   1420.97656     715.3506     458.7939   1420.97656     715.3506     458.7939
   1420.96130     715.2048     457.8421   1420.96130     715.2048     457.8421
   1420.94604     716.1780     457.6853   1420.94604     716.1780     457.6853
   1420.93079     716.3975     457.4877   1420.93079     716.3975     457.4877
   1420.91553     717.1989     456.4564   1420.91553     717.1989     456.4564
   1420.90027     717.4847     455.4586   1420.90027     717.4847     455.4586
   1420.88501     718.5790     455.2343   1420.88501     718.5790     455.2343
   1420.86975     717.3663     455.1526   1420.86975     717.3663     455.1526
   1420.85449     718.8760     454.7383   1420.85449     718.8760     454.7383
   1420.83923     718.0610     454.6130   1420.83923     718.0610     454.6130
   1420.82397     721.6848     454.7131   1420.82397     721.6848     454.7131
   1420.80872     724.5137     456.0248   1420.80872     724.5137     456.0248
   1420.79346     726.9198     456.4649   1420.79346     726.9198     456.4649
   1420.77820     729.5794     457.1007   1420.77820     729.5794     457.1007
   1420.76294     730.6297     458.2579   1420.76294     730.6297     458.2579
   1420.74768     731.0475     457.4766   1420.74768     731.0475     457.4766
   1420.73242     733.5518     457.9439   1420.73242     733.5518     457.9439
   1420.71716     738.8572     458.6647   1420.71716     738.8572     458.6647
   1420.70190     748.1877     463.0286   1420.70190     748.1877     463.0286
   1420.68665     755.6390     467.8348   1420.68665     755.6390     467.8348
   1420.67139     767.4244     474.8759   1420.67139     767.4244     474.8759
   1420.65613     790.9424     488.3305   1420.65613     790.9424     488.3305
   1420.64087     821.6234     505.8327   1420.64087     821.6234     505.8327
   1420.62561     847.2883     518.9010   1420.62561     847.2883     518.9010
   1420.61035     902.3820     551.3755   1420.61035     902.3820     551.3755
   1420.59509    1022.3535     620.2031   1420.59509    1022.3535     620.2031
   1420.57983    1259.7014     757.4481   1420.57983    1259.7014     757.4481
   1420.56458    1541.6561     920.4044   1420.56458    1541.6561     920.4044
   1420.54932    1574.0795     941.5248   1420.54932    1574.0795     941.5248
   1420.53406    1662.6764     990.7385   1420.53406    1662.6764     990.7385
   1420.51880    1883.8455    1116.3400   1420.51880    1883.8455    1116.3400
   1420.50354    2141.5513    1266.7841   1420.50354    2141.5513    1266.7841
   1420.48828    2222.4150    1310.2029   1420.48828    2222.4150    1310.2029
   1420.47302    2135.1809    1257.4467   1420.47302    2135.1809    1257.4467
   1420.45776    1883.5104    1109.7241   1420.45776    1883.5104    1109.7241
   1420.44250    1847.0392    1087.6465   1420.44250    1847.0392    1087.6465
   1420.42725    2044.2701    1198.1375   1420.42725    2044.2701    1198.1375
   1420.41199    1747.3809    1024.3655   1420.41199    1747.3809    1024.3655
   1420.39673    1511.2998     888.3361   1420.39673    1511.2998     888.3361
   1420.38147    1753.8757    1026.0342   1420.38147    1753.8757    1026.0342
   1420.36621    1980.4309    1152.8645   1420.36621    1980.4309    1152.8645
   1420.35095    1855.6555    1081.1033   1420.35095    1855.6555    1081.1033
   1420.33569    1660.2635     964.8294   1420.33569    1660.2635     964.8294
   1420.32043    1323.6443     774.5699   1420.32043    1323.6443     774.5699
   1420.30518     955.8381     563.4978   1420.30518     955.8381     563.4978
   1420.28992     833.8522     492.6178   1420.28992     833.8522     492.6178
   1420.27466     774.0089     458.9024   1420.27466     774.0089     458.9024
   1420.25940     746.0558     441.8427   1420.25940     746.0558     441.8427
   1420.24414     729.1999     432.3634   1420.24414     729.1999     432.3634
   1420.22888     719.5844     426.6008   1420.22888     719.5844     426.6008
   1420.21362     715.5963     423.2815   1420.21362     715.5963     423.2815
   1420.19836     711.8534     419.7116   1420.19836     711.8534     419.7116
   1420.18311     708.8347     417.9605   1420.18311     708.8347     417.9605
   1420.16785     707.8311     416.6941   1420.16785     707.8311     416.6941
   1420.15259     706.3431     415.1191   1420.15259     706.3431     415.1191
   1420.13733     704.8022     414.3354   1420.13733     704.8022     414.3354
   1420.12207     704.7084     412.4414   1420.12207     704.7084     412.4414
   1420.10681     703.3034     411.4168   1420.10681     703.3034     411.4168
   1420.09155     702.1613     410.2211   1420.09155     702.1613     410.2211
   1420.07629     700.6765     409.2333   1420.07629     700.6765     409.2333
   1420.06104     699.6910     409.0463   1420.06104     699.6910     409.0463
   1420.04578     700.1247     407.7059   1420.04578     700.1247     407.7059
   1420.03052     697.7499     407.1817   1420.03052     697.7499     407.1817
   1420.01526     699.8724     406.6218   1420.01526     699.8724     406.6218
   1420.00000     700.7556     407.2939   1420.00000     700.7556     407.2939
   1419.98474     701.6389     407.9658   1419.98474     701.6389     407.9658
   1419.96948     702.4349     405.6690   1419.96948     702.4349     405.6690
   1419.95422     698.4186     403.3558   1419.95422     698.4186     403.3558
   1419.93896     698.9532     402.6914   1419.93896     698.9532     402.6914
   1419.92371     698.4517     402.1430   1419.92371     698.4517     402.1430
   1419.90845     697.3389     401.7886   1419.90845     697.3389     401.7886
   1419.89319     698.1760     401.0709   1419.89319     698.1760     401.0709
   1419.87793     698.1713     400.3282   1419.87793     698.1713     400.3282
   1419.86267     697.5806     400.1294   1419.86267     697.5806     400.1294
   1419.84741     698.5334     399.4922   1419.84741     698.5334     399.4922
   1419.83215     697.2079     398.3107   1419.83215     697.2079     398.3107
   1419.81689     697.5710     398.3384   1419.81689     697.5710     398.3384
   1419.80164     697.0494     397.2458   1419.80164     697.0494     397.2458
   1419.78638     697.7499     396.8415   1419.78638     697.7499     396.8415
   1419.77112     696.8888     396.7898   1419.77112     696.8888     396.7898
   1419.75586     697.9598     396.0159   1419.75586     697.9598     396.0159
   1419.74060     697.3857     396.1001   1419.74060     697.3857     396.1001
   1419.72534     697.6273     395.4402   1419.72534     697.6273     395.4402
   1419.71008     697.8969     394.5339   1419.71008     697.8969     394.5339
   1419.69482     697.7756     394.2636   1419.69482     697.7756     394.2636
   1419.67957     697.3789     393.7754   1419.67957     697.3789     393.7754
   1419.66431     698.5828     393.1334   1419.66431     698.5828     393.1334
   1419.64905     698.5168     392.8182   1419.64905     698.5168     392.8182
   1419.63379     698.8217     392.5695   1419.63379     698.8217     392.5695
   1419.61853     697.8101     392.2180   1419.61853     697.8101     392.2180
   1419.60327     698.3246     392.2294   1419.60327     698.3246     392.2294
   1419.58801     698.1801     390.7993   1419.58801     698.1801     390.7993
   1419.57275     699.0873     391.1044   1419.57275     699.0873     391.1044
   1419.55750     697.8970     390.2921   1419.55750     697.8970     390.2921
   1419.54224     698.8641     391.1225   1419.54224     698.8641     391.1225
   1419.52698     698.7461     390.2249   1419.52698     698.7461     390.2249
   1419.51172     698.8502     389.8814   1419.51172     698.8502     389.8814
   1419.49646     699.1586     389.5615   1419.49646     699.1586     389.5615
   1419.48120     699.3604     388.7918   1419.48120     699.3604     388.7918
   1419.46594     698.6962     389.1973   1419.46594     698.6962     389.1973
   1419.45068     699.5852     389.1114   1419.45068     699.5852     389.1114
   1419.43542     699.0235     388.3300   1419.43542     699.0235     388.3300
   1419.42017     699.6094     387.9655   1419.42017     699.6094     387.9655
   1419.40491     700.3768     387.5640   1419.40491     700.3768     387.5640
   1419.38965     700.2262     387.4968   1419.38965     700.2262     387.4968
   1419.37439     700.2212     387.3764   1419.37439     700.2212     387.3764
   1419.35913     700.9757     386.3723   1419.35913     700.9757     386.3723
   1419.34387     700.5490     386.8160   1419.34387     700.5490     386.8160
   1419.32861     701.0654     386.7309   1419.32861     701.0654     386.7309
   1419.31335     701.0237     386.4568   1419.31335     701.0237     386.4568
   1419.29810     702.6535     386.0120   1419.29810     702.6535     386.0120
   1419.28284     701.0210     386.0264   1419.28284     701.0210     386.0264
   1419.26758     703.1859     385.5839   1419.26758     703.1859     385.5839
   1419.25232     702.6220     385.5645   1419.25232     702.6220     385.5645
   1419.23706     703.2289     385.3703   1419.23706     703.2289     385.3703
   1419.22180     703.0942     385.9926   1419.22180     703.0942     385.9926
   1419.20654     702.1497     385.4161   1419.20654     702.1497     385.4161
   1419.19128     703.4788     385.3067   1419.19128     703.4788     385.3067
   1419.17603     702.7511     384.7902   1419.17603     702.7511     384.7902
   1419.16077     703.9459     384.7926   1419.16077     703.9459     384.7926
   1419.14551     704.1822     384.6632   1419.14551     704.1822     384.6632
   1419.13025     703.9063     384.6272   1419.13025     703.9063     384.6272
   1419.11499     705.1479     384.2928   1419.11499     705.1479     384.2928
   1419.09973     704.7227     385.0030   1419.09973     704.7227     385.0030
   1419.08447     706.4549     384.6422   1419.08447     706.4549     384.6422
   1419.06921     705.2623     384.7051   1419.06921     705.2623     384.7051
   1419.05396     706.6293     384.2822   1419.05396     706.6293     384.2822
   1419.03870     705.9147     384.7350   1419.03870     705.9147     384.7350
   1419.02344     706.4228     384.0777   1419.02344     706.4228     384.0777
   1419.00818     706.9327     384.6418   1419.00818     706.9327     384.6418
   1418.99292     706.9696     384.8856   1418.99292     706.9696     384.8856
   1418.97766     707.9069     384.8809   1418.97766     707.9069     384.8809
   1418.96240     708.6331     384.9308   1418.96240     708.6331     384.9308
   1418.94714     708.4373     384.0040   1418.94714     708.4373     384.0040
   1418.93188     710.1758     384.7885   1418.93188     710.1758     384.7885
   1418.91663     709.9430     384.8236   1418.91663     709.9430     384.8236
   1418.90137     709.5095     385.6508   1418.90137     709.5095     385.6508
   1418.88611     710.2953     384.8677   1418.88611     710.2953     384.8677
   1418.87085     711.7490     385.2809   1418.87085     711.7490     385.2809
   1418.85559     711.2896     385.7155   1418.85559     711.2896     385.7155
   1418.84033     711.1360     385.0400   1418.84033     711.1360     385.0400
   1418.82507     711.9584     385.8238   1418.82507     711.9584     385.8238
   1418.80981     713.0706     385.3337   1418.80981     713.0706     385.3337
   1418.79456     712.3650     385.9977   1418.79456     712.3650     385.9977
   1418.77930     713.4637     385.9871   1418.77930     713.4637     385.9871
   1418.76404     715.0385     386.0358   1418.76404     715.0385     386.0358
   1418.74878     714.8764     386.2435   1418.74878     714.8764     386.2435
   1418.73352     715.6235     386.1224   1418.73352     715.6235     386.1224
   1418.71826     715.2245     386.9486   1418.71826     715.2245     386.9486
   1418.70300     716.6102     387.3281   1418.70300     716.6102     387.3281
   1418.68774     716.1470     387.9763   1418.68774     716.1470     387.9763
   1418.67249     716.7313     387.8552   1418.67249     716.7313     387.8552
   1418.65723     718.1465     387.5892   1418.65723     718.1465     387.5892
   1418.64197     718.2232     387.9476   1418.64197     718.2232     387.9476
   1418.62671     718.0459     388.2383   1418.62671     718.0459     388.2383
   1418.61145     719.3507     388.1868   1418.61145     719.3507     388.1868
   1418.59619     718.8923     389.0975   1418.59619     718.8923     389.0975
   1418.58093     719.8574     388.3081   1418.58093     719.8574     388.3081
   1418.56567     720.3742     389.2431   1418.56567     720.3742     389.2431
   1418.55042     721.2547     390.5701   1418.55042     721.2547     390.5701
   1418.53516     722.0860     390.0952   1418.53516     722.0860     390.0952
   1418.51990     722.2504     390.6140   1418.51990     722.2504     390.6140
   1418.50464     722.2851     391.3805   1418.50464     722.2851     391.3805
   1418.48938     722.7740     391.1042   1418.48938     722.7740     391.1042
   1418.47412     724.1111     391.4659   1418.47412     724.1111     391.4659
   1418.45886     723.7573     392.7011   1418.45886     723.7573     392.7011
   1418.44360     725.6149     392.3948   1418.44360     725.6149     392.3948
   1418.42834     726.8123     393.4681   1418.42834     726.8123     393.4681
   1418.41309     725.7448     393.5412   1418.41309     725.7448     393.5412
   1418.39783     727.1243     393.7643   1418.39783     727.1243     393.7643
   1418.38257     727.5892     394.6389   1418.38257     727.5892     394.6389
   1418.36731     728.0837     394.8892   1418.36731     728.0837     394.8892
   1418.35205     728.5419     395.6913   1418.35205     728.5419     395.6913
   1418.33679     730.5442     396.1417   1418.33679     730.5442     396.1417
   1418.32153     729.9760     396.0609   1418.32153     729.9760     396.0609
   1418.30627     730.5882     397.2375   1418.30627     730.5882     397.2375
   1418.29102     731.5082     397.4702   1418.29102     731.5082     397.4702
   1418.27576     733.6117     397.5100   1418.27576     733.6117     397.5100
   1418.26050     732.0768     398.5850   1418.26050     732.0768     398.5850
   1418.24524     733.7318     398.9094   1418.24524     733.7318     398.9094
   1418.22998     735.0612     398.7624   1418.22998     735.0612     398.7624
   1418.21472     733.9765     400.6822   1418.21472     733.9765     400.6822
   1418.19946     735.4062     400.3730   1418.19946     735.4062     400.3730
   1418.18420     736.6851     401.7697   1418.18420     736.6851     401.7697
   1418.16895     737.1608     401.6792   1418.16895     737.1608     401.6792
   1418.15369     737.6334     403.0105   1418.15369     737.6334     403.0105
   1418.13843     738.9772     403.5357   1418.13843     738.9772     403.5357
   1418.12317     739.1412     403.9453   1418.12317     739.1412     403.9453
   1418.10791     741.2416     404.5339   1418.10791     741.2416     404.5339
   1418.09265     742.2029     405.3097   1418.09265     742.2029     405.3097
   1418.07739     741.3069     405.9408   1418.07739     741.3069     405.9408
   1418.06213     742.0820     407.1985   1418.06213     742.0820     407.1985
   1418.04688     743.7849     407.5325   1418.04688     743.7849     407.5325
   1418.03162     742.9686     407.4065   1418.03162     742.9686     407.4065
   1418.01636     745.2109     408.6667   1418.01636     745.2109     408.6667
   1418.00110     744.5569     409.2861   1418.00110     744.5569     409.2861
   1417.98584     746.8937     410.1276   1417.98584     746.8937     410.1276
   1417.97058     746.5447     411.1134   1417.97058     746.5447     411.1134
   1417.95532     747.0225     411.4622   1417.95532     747.0225     411.4622
   1417.94006     748.0454     412.3230   1417.94006     748.0454     412.3230
   1417.92480     749.0635     412.8694   1417.92480     749.0635     412.8694
   1417.90955     749.2344     413.8049   1417.90955     749.2344     413.8049
   1417.89429     750.2209     414.2859   1417.89429     750.2209     414.2859
   1417.87903     751.3688     415.7255   1417.87903     751.3688     415.7255
   1417.86377     751.3349     415.8596   1417.86377     751.3349     415.8596
   1417.84851     753.7895     417.0997   1417.84851     753.7895     417.0997
   1417.83325     754.4391     418.3485   1417.83325     754.4391     418.3485
   1417.81799     753.6572     418.9944   1417.81799     753.6572     418.9944
   1417.80273     754.3855     419.7389   1417.80273     754.3855     419.7389
   1417.78748     756.0178     420.4629   1417.78748     756.0178     420.4629
   1417.77222     756.5707     421.4623   1417.77222     756.5707     421.4623
   1417.75696     758.1901     422.6434   1417.75696     758.1901     422.6434
   1417.74170     757.8036     423.0468   1417.74170     757.8036     423.0468
   1417.72644     758.8345     423.7691   1417.72644     758.8345     423.7691
   1417.71118     760.2413     424.8941   1417.71118     760.2413     424.8941
   1417.69592     760.5663     425.5271   1417.69592     760.5663     425.5271
   1417.68066     761.2753     426.9123   1417.68066     761.2753     426.9123
   1417.66541     761.5289     427.0415   1417.66541     761.5289     427.0415
   1417.65015     762.9639     429.0089   1417.65015     762.9639     429.0089
   1417.63489     763.5243     429.4526   1417.63489     763.5243     429.4526
   1417.61963     765.3279     430.1692   1417.61963     765.3279     430.1692
   1417.60437     763.9553     430.7993   1417.60437     763.9553     430.7993
   1417.58911     765.3054     432.6148   1417.58911     765.3054     432.6148
   1417.57385     766.4153     433.4723   1417.57385     766.4153     433.4723
   1417.55859     766.4414     433.5446   1417.55859     766.4414     433.5446
   1417.54333     768.0483     435.0493   1417.54333     768.0483     435.0493
   1417.52808     769.0405     436.1760   1417.52808     769.0405     436.1760
   1417.51282     769.1531     436.8102   1417.51282     769.1531     436.8102
   1417.49756     769.6799     438.5763   1417.49756     769.6799     438.5763
   1417.48230     772.3531     439.0630   1417.48230     772.3531     439.0630
   1417.46704     772.0648     440.2604   1417.46704     772.0648     440.2604
   1417.45178     770.7705     440.8672   1417.45178     770.7705     440.8672
   1417.43652     771.6508     443.0076   1417.43652     771.6508     443.0076
   1417.42126     773.3347     442.6899   1417.42126     773.3347     442.6899
   1417.40601     775.5896     444.6620   1417.40601     775.5896     444.6620
   1417.39075     776.5515     445.1573   1417.39075     776.5515     445.1573
   1417.37549     775.8488     445.6936   1417.37549     775.8488     445.6936
   1417.36023     776.4432     447.0709   1417.36023     776.4432     447.0709
   1417.34497     776.7731     448.4704   1417.34497     776.7731     448.4704
   1417.32971     779.4442     449.4409   1417.32971     779.4442     449.4409
   1417.31445     778.7181     450.0357   1417.31445     778.7181     450.0357
   1417.29919     779.3495     451.2585   1417.29919     779.3495     451.2585
   1417.28394     779.5266     452.2491   1417.28394     779.5266     452.2491
   1417.26868     780.7817     453.7335   1417.26868     780.7817     453.7335
   1417.25342     782.5068     454.8039   1417.25342     782.5068     454.8039
   1417.23816     782.7277     455.5631   1417.23816     782.7277     455.5631
   1417.22290     782.1495     456.9506   1417.22290     782.1495     456.9506
   1417.20764     783.1452     457.2410   1417.20764     783.1452     457.2410
   1417.19238     784.2206     458.7028   1417.19238     784.2206     458.7028
   1417.17712     784.3694     460.0406   1417.17712     784.3694     460.0406
   1417.16187     784.5518     460.7468   1417.16187     784.5518     460.7468
   1417.14661     786.4521     461.3339   1417.14661     786.4521     461.3339
   1417.13135     786.1972     462.2376   1417.13135     786.1972     462.2376
   1417.11609     788.0347     463.5472   1417.11609     788.0347     463.5472
   1417.10083     786.6330     465.3247   1417.10083     786.6330     465.3247
   1417.08557     788.2044     466.0933   1417.08557     788.2044     466.0933
   1417.07031     788.3735     467.4701   1417.07031     788.3735     467.4701
   1417.05505     787.4681     468.4218   1417.05505     787.4681     468.4218
   1417.03979     789.1632     469.3163   1417.03979     789.1632     469.3163
   1417.02454     790.4464     469.7097   1417.02454     790.4464     469.7097
   1417.00928     789.9428     470.7718   1417.00928     789.9428     470.7718
   1416.99402     791.1179     472.0392   1416.99402     791.1179     472.0392
   1416.97876     791.5932     473.0997   1416.97876     791.5932     473.0997
   1416.96350     793.2725     473.8388   1416.96350     793.2725     473.8388
   1416.94824     792.0189     475.6059   1416.94824     792.0189     475.6059
   1416.93298     792.6456     476.6627   1416.93298     792.6456     476.6627
   1416.91772     793.3037     476.6826   1416.91772     793.3037     476.6826
   1416.90247     794.4225     477.9007   1416.90247     794.4225     477.9007
   1416.88721     795.2715     478.9462   1416.88721     795.2715     478.9462
   1416.87195     795.2305     480.5732   1416.87195     795.2305     480.5732
   1416.85669     794.6534     480.9457   1416.85669     794.6534     480.9457
   1416.84143     795.7181     482.0510   1416.84143     795.7181     482.0510
   1416.82617     795.4611     482.5726   1416.82617     795.4611     482.5726
   1416.81091     795.9743     483.9488   1416.81091     795.9743     483.9488
   1416.79565     796.2552     484.4323   1416.79565     796.2552     484.4323
   1416.78040     796.6694     485.3150   1416.78040     796.6694     485.3150
   1416.76514     796.0995     486.1984   1416.76514     796.0995     486.1984
   1416.74988     797.6174     487.4523   1416.74988     797.6174     487.4523
   1416.73462     796.3357     488.5392   1416.73462     796.3357     488.5392
   1416.71936     796.7329     488.7986   1416.71936     796.7329     488.7986
   1416.70410     798.2385     489.6947   1416.70410     798.2385     489.6947
   1416.68884     797.8019     490.2282   1416.68884     797.8019     490.2282
   1416.67358     797.2274     491.5447   1416.67358     797.2274     491.5447
   1416.65833     798.3294     492.4765   1416.65833     798.3294     492.4765
   1416.64307     798.1111     492.7769   1416.64307     798.1111     492.7769
   1416.62781     798.8631     494.0594   1416.62781     798.8631     494.0594
   1416.61255     799.5142     495.1673   1416.61255     799.5142     495.1673
   1416.59729     799.9188     495.6308   1416.59729     799.9188     495.6308
   1416.58203     799.2908     496.4906   1416.58203     799.2908     496.4906
   1416.56677     798.3731     497.6064   1416.56677     798.3731     497.6064
   1416.55151     799.1490     498.2473   1416.55151     799.1490     498.2473
   1416.53625     798.2278     499.0945   1416.53625     798.2278     499.0945
   1416.52100     799.0284     499.1314   1416.52100     799.0284     499.1314
   1416.50574     798.0225     499.4013   1416.50574     798.0225     499.4013
   1416.49048     800.1877     500.0711   1416.49048     800.1877     500.0711
   1416.47522     798.4048     501.5667   1416.47522     798.4048     501.5667
   1416.45996     799.0020     501.5710   1416.45996     799.0020     501.5710
   1416.44470     797.7663     502.8788   1416.44470     797.7663     502.8788
   1416.42944     798.7664     503.3035   1416.42944     798.7664     503.3035
   1416.41418     799.4169     503.1456   1416.41418     799.4169     503.1456
   1416.39893     798.0161     504.2355   1416.39893     798.0161     504.2355
   1416.38367     799.0952     504.7653   1416.38367     799.0952     504.7653
   1416.36841     797.5107     504.8704   1416.36841     797.5107     504.8704
   1416.35315     799.3066     505.5117   1416.35315     799.3066     505.5117
   1416.33789     796.4045     506.1041   1416.33789     796.4045     506.1041
   1416.32263     797.3214     506.7964   1416.32263     797.3214     506.7964
   1416.30737     797.9807     506.9736   1416.30737     797.9807     506.9736
   1416.29211     797.1388     507.5863   1416.29211     797.1388     507.5863
   1416.27686     796.8699     508.1372   1416.27686     796.8699     508.1372
   1416.26160     796.6086     508.4559   1416.26160     796.6086     508.4559
   1416.24634     795.2923     508.3831   1416.24634     795.2923     508.3831
   1416.23108     796.4196     509.6274   1416.23108     796.4196     509.6274
   1416.21582     796.5167     508.8844   1416.21582     796.5167     508.8844
   1416.20056     796.3650     509.9834   1416.20056     796.3650     509.9834
   1416.18530     795.4554     509.2510   1416.18530     795.4554     509.2510
   1416.17004     794.4661     510.6151   1416.17004     794.4661     510.6151
   1416.15479     793.8688     510.3906   1416.15479     793.8688     510.3906
   1416.13953     793.7385     510.4642   1416.13953     793.7385     510.4642
   1416.12427     794.5989     511.4499   1416.12427     794.5989     511.4499
   1416.10901     793.6797     511.4232   1416.10901     793.6797     511.4232
   1416.09375     794.0006     510.7945   1416.09375     794.0006     510.7945
   1416.07849     792.9842     511.4612   1416.07849     792.9842     511.4612
   1416.06323     791.9167     512.4061   1416.06323     791.9167     512.4061
   1416.04797     791.1963     511.5404   1416.04797     791.1963     511.5404
   1416.03271     792.0128     512.2980   1416.03271     792.0128     512.2980
   1416.01746     790.6600     512.6559   1416.01746     790.6600     512.6559
   1416.00220     790.9445     512.5035   1416.00220     790.9445     512.5035
   1415.98694     790.2623     513.0198   1415.98694     790.2623     513.0198
   1415.97168     789.0253     512.5379   1415.97168     789.0253     512.5379
   1415.95642     788.4872     513.2397   1415.95642     788.4872     513.2397
   1415.94116     788.5770     513.5421   1415.94116     788.5770     513.5421
   1415.92590     787.3734     513.1851   1415.92590     787.3734     513.1851
   1415.91064     786.1957     512.7963   1415.91064     786.1957     512.7963
   1415.89539     786.0403     513.4832   1415.89539     786.0403     513.4832
   1415.88013     784.5238     513.3589   1415.88013     784.5238     513.3589
   1415.86487     785.7747     512.7568   1415.86487     785.7747     512.7568
   1415.84961     783.9153     512.6491   1415.84961     783.9153     512.6491
   1415.83435     785.5644     514.0719   1415.83435     785.5644     514.0719
   1415.81909     784.3018     512.3075   1415.81909     784.3018     512.3075
   1415.80383     781.7917     512.7703   1415.80383     781.7917     512.7703
   1415.78857     782.1114     512.4733   1415.78857     782.1114     512.4733
   1415.77332     780.1099     513.6949   1415.77332     780.1099     513.6949
   1415.75806     779.6517     513.0162   1415.75806     779.6517     513.0162
   1415.74280     779.8616     512.9208   1415.74280     779.8616     512.9208
   1415.72754     778.3913     513.5714   1415.72754     778.3913     513.5714
   1415.71228     777.2033     512.8071   1415.71228     777.2033     512.8071
   1415.69702     777.6733     511.8066   1415.69702     777.6733     511.8066
   1415.68176     776.3519     512.7159   1415.68176     776.3519     512.7159
   1415.66650     775.8721     512.8616   1415.66650     775.8721     512.8616
   1415.65125     773.7266     512.0527   1415.65125     773.7266     512.0527
   1415.63599     772.9047     511.3028   1415.63599     772.9047     511.3028
   1415.62073     772.0786     512.6254   1415.62073     772.0786     512.6254
   1415.60547     772.6293     511.3297   1415.60547     772.6293     511.3297
   1415.59021     771.0123     512.3346   1415.59021     771.0123     512.3346
   1415.57495     772.4930     510.4928   1415.57495     772.4930     510.4928
   1415.55969     770.1491     510.7262   1415.55969     770.1491     510.7262
   1415.54443     769.9737     511.6671   1415.54443     769.9737     511.6671
   1415.52917     768.9338     511.4153   1415.52917     768.9338     511.4153
   1415.51392     766.7980     510.5496   1415.51392     766.7980     510.5496
   1415.49866     764.6685     509.6329   1415.49866     764.6685     509.6329
   1415.48340     765.7214     510.3816   1415.48340     765.7214     510.3816
   1415.46814     763.7103     509.4259   1415.46814     763.7103     509.4259
   1415.45288     765.0454     509.9711   1415.45288     765.0454     509.9711
   1415.43762     762.4264     509.2452   1415.43762     762.4264     509.2452
   1415.42236     761.1913     509.1038   1415.42236     761.1913     509.1038
   1415.40710     760.6266     509.2541   1415.40710     760.6266     509.2541
   1415.39185     759.4258     508.8448   1415.39185     759.4258     508.8448
   1415.37659     759.2365     508.9143   1415.37659     759.2365     508.9143
   1415.36133     756.3826     508.6031   1415.36133     756.3826     508.6031
   1415.34607     756.8724     507.4776   1415.34607     756.8724     507.4776
   1415.33081     755.6258     507.2568   1415.33081     755.6258     507.2568
   1415.31555     753.7686     507.2321   1415.31555     753.7686     507.2321
   1415.30029     752.7389     507.0698   1415.30029     752.7389     507.0698
   1415.28503     752.0912     506.2802   1415.28503     752.0912     506.2802
   1415.26978     750.3524     506.1203   1415.26978     750.3524     506.1203
   1415.25452     749.5510     505.1824   1415.25452     749.5510     505.1824
   1415.23926     748.7461     505.2816   1415.23926     748.7461     505.2816
   1415.22400     746.5218     505.3069   1415.22400     746.5218     505.3069
   1415.20874     745.8210     504.4639   1415.20874     745.8210     504.4639
   1415.19348     744.4029     504.8167   1415.19348     744.4029     504.8167
   1415.17822     743.9125     503.6893   1415.17822     743.9125     503.6893
   1415.16296     741.8223     502.9482   1415.16296     741.8223     502.9482
   1415.14771     740.5963     503.1440   1415.14771     740.5963     503.1440
   1415.13245     740.8077     502.3283   1415.13245     740.8077     502.3283
   1415.11719     738.2052     501.5867   1415.11719     738.2052     501.5867
   1415.10193     735.7623     501.4456   1415.10193     735.7623     501.4456
   1415.08667     735.8982     500.8204   1415.08667     735.8982     500.8204
   1415.07141     734.8695     500.6156   1415.07141     734.8695     500.6156
   1415.05615     732.6080     500.4285   1415.05615     732.6080     500.4285
   1415.04089     731.6072     499.4851   1415.04089     731.6072     499.4851
   1415.02563     729.5994     498.7124   1415.02563     729.5994     498.7124
   1415.01038     727.3025     497.1794   1415.01038     727.3025     497.1794
   1414.99512     727.1398     497.4796   1414.99512     727.1398     497.4796
   1414.97986     725.9127     496.7814   1414.97986     725.9127     496.7814
   1414.96460     724.3849     496.1021   1414.96460     724.3849     496.1021
   1414.94934     722.7084     496.1819   1414.94934     722.7084     496.1819
   1414.93408     721.7518     493.9857   1414.93408     721.7518     493.9857
   1414.91882     719.3999     493.7948   1414.91882     719.3999     493.7948
   1414.90356     717.7765     493.9211   1414.90356     717.7765     493.9211
   1414.88831     716.6021     493.4936   1414.88831     716.6021     493.4936
   1414.87305     715.4474     492.7760   1414.87305     715.4474     492.7760
   1414.85779     713.9337     491.3401   1414.85779     713.9337     491.3401
   1414.84253     711.7426     490.8460   1414.84253     711.7426     490.8460
   1414.82727     709.2789     490.0202   1414.82727     709.2789     490.0202
   1414.81201     708.2574     489.1917   1414.81201     708.2574     489.1917
   1414.79675     706.9424     488.4651   1414.79675     706.9424     488.4651
   1414.78149     705.0137     487.4416   1414.78149     705.0137     487.4416
   1414.76624     701.3912     486.6655   1414.76624     701.3912     486.6655
   1414.75098     701.0717     486.6499   1414.75098     701.0717     486.6499
   1414.73572     699.6351     485.2405   1414.73572     699.6351     485.2405
   1414.72046     697.2160     484.1418   1414.72046     697.2160     484.1418
   1414.70520     695.5055     483.2599   1414.70520     695.5055     483.2599
   1414.68994     694.2582     482.4810   1414.68994     694.2582     482.4810
   1414.67468     691.6832     480.9691   1414.67468     691.6832     480.9691
   1414.65942     690.1664     481.2430   1414.65942     690.1664     481.2430
   1414.64417     689.9766     479.6528   1414.64417     689.9766     479.6528
   1414.62891     686.3560     478.0100   1414.62891     686.3560     478.0100
   1414.61365     684.2433     477.9819   1414.61365     684.2433     477.9819
   1414.59839     683.4955     477.0838   1414.59839     683.4955     477.0838
   1414.58313     681.0587     476.4958   1414.58313     681.0587     476.4958
   1414.56787     678.9382     474.9366   1414.56787     678.9382     474.9366
   1414.55261     676.8473     473.6494   1414.55261     676.8473     473.6494
   1414.53735     675.4403     471.6743   1414.53735     675.4403     471.6743
   1414.52209     671.4250     471.8899   1414.52209     671.4250     471.8899
   1414.50684     670.7211     470.3418   1414.50684     670.7211     470.3418
   1414.49158     668.1448     470.2975   1414.49158     668.1448     470.2975
   1414.47632     666.9706     468.7250   1414.47632     666.9706     468.7250
   1414.46106     663.5259     467.2696   1414.46106     663.5259     467.2696
   1414.44580     661.0206     466.8033   1414.44580     661.0206     466.8033
   1414.43054     660.2726     465.5920   1414.43054     660.2726     465.5920
   1414.41528     656.8663     463.5921   1414.41528     656.8663     463.5921
   1414.40002     655.1870     463.4522   1414.40002     655.1870     463.4522
   1414.38477     653.6005     461.1317   1414.38477     653.6005     461.1317
   1414.36951     650.7609     460.9121   1414.36951     650.7609     460.9121
   1414.35425     647.8973     458.9633   1414.35425     647.8973     458.9633
   1414.33899     646.2468     457.8966   1414.33899     646.2468     457.8966
   1414.32373     643.8984     456.6715   1414.32373     643.8984     456.6715
   1414.30847     642.0453     455.0650   1414.30847     642.0453     455.0650
   1414.29321     639.7265     453.9184   1414.29321     639.7265     453.9184
   1414.27795     637.3305     452.7109   1414.27795     637.3305     452.7109
   1414.26270     634.3994     451.2011   1414.26270     634.3994     451.2011
   1414.24744     631.8005     450.1118   1414.24744     631.8005     450.1118
   1414.23218     629.4819     448.6999   1414.23218     629.4819     448.6999
   1414.21692     626.6882     447.4856   1414.21692     626.6882     447.4856
   1414.20166     625.1306     445.5349   1414.20166     625.1306     445.5349
   1414.18640     622.3235     444.7266   1414.18640     622.3235     444.7266
   1414.17114     620.4781     443.2660   1414.17114     620.4781     443.2660
   1414.15588     617.6198     441.4299   1414.15588     617.6198     441.4299
   1414.14062     614.7726     440.0121   1414.14062     614.7726     440.0121
   1414.12537     612.1138     438.8074   1414.12537     612.1138     438.8074
   1414.11011     609.0309     437.6236   1414.11011     609.0309     437.6236
   1414.09485     606.8857     435.8889   1414.09485     606.8857     435.8889
   1414.07959     604.0017     434.3585   1414.07959     604.0017     434.3585
   1414.06433     600.5112     433.3541   1414.06433     600.5112     433.3541
   1414.04907     598.6981     431.5668   1414.04907     598.6981     431.5668
   1414.03381     596.1909     429.5865   1414.03381     596.1909     429.5865
   1414.01855     595.7783     429.2090   1414.01855     595.7783     429.2090
   1414.00330     617.9654     434.7423   1414.00330     617.9654     434.7423
   1413.98804     590.0122     425.6947   1413.98804     590.0122     425.6947
   1413.97278     586.2365     423.6836   1413.97278     586.2365     423.6836
   1413.95752     583.1155     422.5710   1413.95752     583.1155     422.5710
   1413.94226     579.4263     420.4098   1413.94226     579.4263     420.4098
   1413.92700     578.1147     419.3058   1413.92700     578.1147     419.3058
   1413.91174     573.6269     417.8372   1413.91174     573.6269     417.8372
   1413.89648     572.2413     415.6150   1413.89648     572.2413     415.6150
   1413.88123     570.0020     414.4483   1413.88123     570.0020     414.4483
   1413.86597     566.7478     412.8214   1413.86597     566.7478     412.8214
   1413.85071     563.8517     411.1920   1413.85071     563.8517     411.1920
   1413.83545     561.8357     409.2926   1413.83545     561.8357     409.2926
   1413.82019     558.5091     406.7851   1413.82019     558.5091     406.7851
   1413.80493     555.6263     406.8081   1413.80493     555.6263     406.8081
   1413.78967     552.9947     404.4321   1413.78967     552.9947     404.4321
   1413.77441     549.9518     403.0967   1413.77441     549.9518     403.0967
   1413.75916     547.3015     401.1571   1413.75916     547.3015     401.1571
   1413.74390     544.2802     399.2915   1413.74390     544.2802     399.2915
   1413.72864     541.8591     397.7738   1413.72864     541.8591     397.7738
   1413.71338     538.8259     396.2705   1413.71338     538.8259     396.2705
   1413.69812     535.6179     394.8340   1413.69812     535.6179     394.8340
   1413.68286     533.3751     392.9763   1413.68286     533.3751     392.9763
   1413.66760     531.0679     391.3921   1413.66760     531.0679     391.3921
   1413.65234     527.4667     390.2651   1413.65234     527.4667     390.2651
   1413.63708     525.4228     388.4858   1413.63708     525.4228     388.4858
   1413.62183     521.3811     386.6183   1413.62183     521.3811     386.6183
   1413.60657     520.4960     385.5381   1413.60657     520.4960     385.5381
   1413.59131     516.1728     383.2221   1413.59131     516.1728     383.2221
   1413.57605     513.5616     381.7012   1413.57605     513.5616     381.7012
   1413.56079     510.5979     380.1092   1413.56079     510.5979     380.1092
   1413.54553     508.7112     378.6812   1413.54553     508.7112     378.6812
   1413.53027     505.1079     377.2510   1413.53027     505.1079     377.2510
   1413.51501     502.8988     374.8736   1413.51501     502.8988     374.8736
   1413.49976     499.4316     373.3603   1413.49976     499.4316     373.3603
   1413.48450     496.7914     371.5767   1413.48450     496.7914     371.5767
   1413.46924     494.5953     370.0070   1413.46924     494.5953     370.0070
   1413.45398     492.2520     369.1263   1413.45398     492.2520     369.1263
   1413.43872     488.7183     367.4754   1413.43872     488.7183     367.4754
   1413.42346     486.3158     365.5278   1413.42346     486.3158     365.5278
   1413.40820     483.3087     364.6498   1413.40820     483.3087     364.6498
   1413.39294     480.6872     362.7449   1413.39294     480.6872     362.7449
   1413.37769     477.9839     360.7885   1413.37769     477.9839     360.7885
   1413.36243     474.9608     359.7019   1413.36243     474.9608     359.7019
   1413.34717     473.2436     357.7681   1413.34717     473.2436     357.7681
   1413.33191     470.4085     356.2678   1413.33191     470.4085     356.2678
   1413.31665     467.8913     354.8393   1413.31665     467.8913     354.8393
   1413.30139     464.8582     353.4732   1413.30139     464.8582     353.4732
   1413.28613     462.4088     352.6200   1413.28613     462.4088     352.6200
   1413.27087     460.2054     350.7250   1413.27087     460.2054     350.7250
   1413.25562     458.0714     349.7410   1413.25562     458.0714     349.7410
   1413.24036     454.6497     347.7551   1413.24036     454.6497     347.7551
   1413.22510     452.8850     346.1349   1413.22510     452.8850     346.1349
   1413.20984     450.1744     345.1003   1413.20984     450.1744     345.1003
   1413.19458     447.4967     344.0843   1413.19458     447.4967     344.0843
   1413.17932     446.4450     342.7218   1413.17932     446.4450     342.7218
   1413.16406     443.5735     341.5251   1413.16406     443.5735     341.5251
   1413.14880     439.9368     339.6080   1413.14880     439.9368     339.6080
   1413.13354     438.9721     338.7752   1413.13354     438.9721     338.7752
   1413.11829     435.9619     338.2191   1413.11829     435.9619     338.2191
   1413.10303     433.8259     336.3488   1413.10303     433.8259     336.3488
   1413.08777     431.7542     335.9308   1413.08777     431.7542     335.9308
   1413.07251     428.6781     333.9155   1413.07251     428.6781     333.9155
   1413.05725     427.5402     333.0610   1413.05725     427.5402     333.0610
   1413.04199     425.5235     331.5191   1413.04199     425.5235     331.5191
   1413.02673     423.0771     330.8892   1413.02673     423.0771     330.8892
   1413.01147     420.4782     329.5278   1413.01147     420.4782     329.5278
   1412.99622     418.7724     329.0277   1412.99622     418.7724     329.0277
   1412.98096     416.5303     328.2247   1412.98096     416.5303     328.2247
   1412.96570     414.4323     327.5149   1412.96570     414.4323     327.5149
   1412.95044     412.5522     325.7454   1412.95044     412.5522     325.7454
   1412.93518     411.2390     325.5113   1412.93518     411.2390     325.5113
   1412.91992     409.3224     324.1827   1412.91992     409.3224     324.1827
   1412.90466     407.0907     323.6989   1412.90466     407.0907     323.6989
   1412.88940     405.3282     323.3364   1412.88940     405.3282     323.3364
   1412.87415     403.7400     322.5529   1412.87415     403.7400     322.5529
   1412.85889     401.6993     321.3759   1412.85889     401.6993     321.3759
   1412.84363     400.7718     321.5021   1412.84363     400.7718     321.5021
   1412.82837     398.4357     320.7742   1412.82837     398.4357     320.7742
   1412.81311     397.0939     320.2912   1412.81311     397.0939     320.2912
   1412.79785     396.1317     319.8845   1412.79785     396.1317     319.8845
   1412.78259     393.7289     319.5573   1412.78259     393.7289     319.5573
   1412.76733     392.5181     318.3913   1412.76733     392.5181     318.3913
   1412.75208     391.8885     318.8082   1412.75208     391.8885     318.8082
   1412.73682     389.4670     317.8750   1412.73682     389.4670     317.8750
   1412.72156     388.6554     317.8480   1412.72156     388.6554     317.8480
   1412.70630     387.7784     317.8994   1412.70630     387.7784     317.8994
   1412.69104     386.6201     317.5116   1412.69104     386.6201     317.5116
   1412.67578     385.0438     317.1072   1412.67578     385.0438     317.1072
   1412.66052     383.8290     317.4283   1412.66052     383.8290     317.4283
   1412.64526     383.1274     316.9363   1412.64526     383.1274     316.9363
   1412.63000     381.7769     317.7101   1412.63000     381.7769     317.7101
   1412.61475     380.5552     317.2928   1412.61475     380.5552     317.2928
   1412.59949     380.3769     317.5775   1412.59949     380.3769     317.5775
   1412.58423     379.4717     317.7583   1412.58423     379.4717     317.7583
   1412.56897     378.4925     318.3650   1412.56897     378.4925     318.3650
   1412.55371     377.9680     318.8971   1412.55371     377.9680     318.8971
   1412.53845     377.1035     319.2186   1412.53845     377.1035     319.2186
   1412.52319     376.4659     319.1074   1412.52319     376.4659     319.1074
   1412.50793     375.5425     319.3465   1412.50793     375.5425     319.3465
   1412.49268     375.9523     320.3400   1412.49268     375.9523     320.3400
   1412.47742     374.7706     320.8297   1412.47742     374.7706     320.8297
   1412.46216     374.1688     321.2104   1412.46216     374.1688     321.2104
   1412.44690     374.3276     321.6362   1412.44690     374.3276     321.6362
   1412.43164     373.7175     322.5615   1412.43164     373.7175     322.5615
   1412.41638     373.5256     323.5177   1412.41638     373.5256     323.5177
   1412.40112     372.8771     324.6170   1412.40112     372.8771     324.6170
   1412.38586     373.4248     324.8041   1412.38586     373.4248     324.8041
   1412.37061     372.5664     326.0396   1412.37061     372.5664     326.0396
   1412.35535     373.1489     326.4230   1412.35535     373.1489     326.4230
   1412.34009     372.7530     327.4742   1412.34009     372.7530     327.4742
   1412.32483     373.5937     328.7567   1412.32483     373.5937     328.7567
   1412.30957     372.5074     330.2560   1412.30957     372.5074     330.2560
   1412.29431     373.4507     330.9428   1412.29431     373.4507     330.9428
   1412.27905     373.1898     332.6324   1412.27905     373.1898     332.6324
   1412.26379     373.5584     333.6020   1412.26379     373.5584     333.6020
   1412.24854     373.9022     335.0124   1412.24854     373.9022     335.0124
   1412.23328     374.9384     336.6997   1412.23328     374.9384     336.6997
   1412.21802     375.1429     338.1035   1412.21802     375.1429     338.1035
   1412.20276     374.6574     339.3000   1412.20276     374.6574     339.3000