#     FILENAME=!Skynet_57528_lach-cc-85_20530_20931.cyb.fits
#     BASENAME=Skynet_57528_lach-cc-85_20530_20931
#     SRC_NAME=lach-cc-85
#     OBSERVER=ccmadison16_9505
#     DATE_OBS=2016-05-20T16:11:36.560
#        OBSID=20530
#      SCANNUM=20931
#          MJD=57528.6758
#          UTC=58385
#     SCANTYPE=track
#     DATAMODE=HIRES
#     TUNEFREQ=1420.0000
# Actual_FREQ1=1420.0000
# Actual_FREQ2=1420.0000
#    LO1Tuning=6870.000
#     RFFILTER=1355_1435
#        OBSBW=-15.6250
#        NCHAN=1024 
#        FOCUS=37.0709
#           RA=20:52:42.23
#          DEC=44:35:06.77
#      RA(hrs)=20.878400
#     DEC(deg)=44.585200
#    AZIM(deg)=306.622
#    ELEV(deg)=26.711
#     IFattens=11.00, 10.00
#      WARNING=None
#    TCAL_XL1=7.9635
#    TCAL_YR1=9.1340
#    TCAL_XL2=7.9635
#    TCAL_YR2=9.1340
#     TRX_XL1=11.7060
#     TRX_YR1=11.7060
#     TRX_XL2=11.7060
#     TRX_YR2=11.7060
#        TAVE=1.0000
#Freq1(MHz)          XL1          YR1  Freq2(MHz)          XL2          YR2 

   1427.81250     342.4116     282.1505   1427.81250     342.4116     282.1505
   1427.79724     342.9555     282.6337   1427.79724     342.9555     282.6337
   1427.78198     343.7495     283.5451   1427.78198     343.7495     283.5451
   1427.76672     344.4610     284.0883   1427.76672     344.4610     284.0883
   1427.75146     344.9433     284.1927   1427.75146     344.9433     284.1927
   1427.73621     345.6511     284.9243   1427.73621     345.6511     284.9243
   1427.72095     346.8613     285.6725   1427.72095     346.8613     285.6725
   1427.70569     347.3795     286.6620   1427.70569     347.3795     286.6620
   1427.69043     348.2665     287.8694   1427.69043     348.2665     287.8694
   1427.67517     349.6603     288.5183   1427.67517     349.6603     288.5183
   1427.65991     349.8999     289.5873   1427.65991     349.8999     289.5873
   1427.64465     350.9206     290.2150   1427.64465     350.9206     290.2150
   1427.62939     352.2234     291.4997   1427.62939     352.2234     291.4997
   1427.61414     353.3812     292.2767   1427.61414     353.3812     292.2767
   1427.59888     354.8140     293.9979   1427.59888     354.8140     293.9979
   1427.58362     356.1650     294.8257   1427.58362     356.1650     294.8257
   1427.56836     357.2728     295.7903   1427.56836     357.2728     295.7903
   1427.55310     358.8596     296.8898   1427.55310     358.8596     296.8898
   1427.53784     360.0190     298.4269   1427.53784     360.0190     298.4269
   1427.52258     361.2056     299.3798   1427.52258     361.2056     299.3798
   1427.50732     362.6559     301.3468   1427.50732     362.6559     301.3468
   1427.49207     364.2142     302.6112   1427.49207     364.2142     302.6112
   1427.47681     366.0776     304.1703   1427.47681     366.0776     304.1703
   1427.46155     367.7561     305.3113   1427.46155     367.7561     305.3113
   1427.44629     369.0812     306.0489   1427.44629     369.0812     306.0489
   1427.43103     370.2135     307.9553   1427.43103     370.2135     307.9553
   1427.41577     372.3484     309.4081   1427.41577     372.3484     309.4081
   1427.40051     374.4865     311.3614   1427.40051     374.4865     311.3614
   1427.38525     375.0268     313.2078   1427.38525     375.0268     313.2078
   1427.37000     377.1922     314.6537   1427.37000     377.1922     314.6537
   1427.35474     379.0225     316.1781   1427.35474     379.0225     316.1781
   1427.33948     381.9287     318.2638   1427.33948     381.9287     318.2638
   1427.32422     383.0488     319.8388   1427.32422     383.0488     319.8388
   1427.30896     385.7098     321.2675   1427.30896     385.7098     321.2675
   1427.29370     387.5044     323.2495   1427.29370     387.5044     323.2495
   1427.27844     389.1367     324.9824   1427.27844     389.1367     324.9824
   1427.26318     391.7140     326.8987   1427.26318     391.7140     326.8987
   1427.24792     393.5786     328.8011   1427.24792     393.5786     328.8011
   1427.23267     395.5901     330.6623   1427.23267     395.5901     330.6623
   1427.21741     397.9932     332.6878   1427.21741     397.9932     332.6878
   1427.20215     400.2205     334.3145   1427.20215     400.2205     334.3145
   1427.18689     401.8932     336.9768   1427.18689     401.8932     336.9768
   1427.17163     405.0565     339.0396   1427.17163     405.0565     339.0396
   1427.15637     407.4021     340.8038   1427.15637     407.4021     340.8038
   1427.14111     409.1854     342.3459   1427.14111     409.1854     342.3459
   1427.12585     411.7427     345.2075   1427.12585     411.7427     345.2075
   1427.11060     414.5890     346.8159   1427.11060     414.5890     346.8159
   1427.09534     416.7408     349.0116   1427.09534     416.7408     349.0116
   1427.08008     419.1827     350.7381   1427.08008     419.1827     350.7381
   1427.06482     421.4549     353.8823   1427.06482     421.4549     353.8823
   1427.04956     423.5530     355.5505   1427.04956     423.5530     355.5505
   1427.03430     426.5189     357.8078   1427.03430     426.5189     357.8078
   1427.01904     429.5351     360.1389   1427.01904     429.5351     360.1389
   1427.00378     431.5634     362.3840   1427.00378     431.5634     362.3840
   1426.98853     433.8935     364.4569   1426.98853     433.8935     364.4569
   1426.97327     435.5594     365.8717   1426.97327     435.5594     365.8717
   1426.95801     440.1605     368.8766   1426.95801     440.1605     368.8766
   1426.94275     441.9659     370.8759   1426.94275     441.9659     370.8759
   1426.92749     444.4899     373.5023   1426.92749     444.4899     373.5023
   1426.91223     447.0896     375.7658   1426.91223     447.0896     375.7658
   1426.89697     450.3821     378.2681   1426.89697     450.3821     378.2681
   1426.88171     452.6158     380.3009   1426.88171     452.6158     380.3009
   1426.86646     454.7817     383.1623   1426.86646     454.7817     383.1623
   1426.85120     457.4185     385.0827   1426.85120     457.4185     385.0827
   1426.83594     460.9185     387.9935   1426.83594     460.9185     387.9935
   1426.82068     463.1799     390.2003   1426.82068     463.1799     390.2003
   1426.80542     465.7261     391.9590   1426.80542     465.7261     391.9590
   1426.79016     469.1461     394.7594   1426.79016     469.1461     394.7594
   1426.77490     471.5741     396.8376   1426.77490     471.5741     396.8376
   1426.75964     473.2421     399.1836   1426.75964     473.2421     399.1836
   1426.74438     477.1948     401.9557   1426.74438     477.1948     401.9557
   1426.72913     479.1179     403.7907   1426.72913     479.1179     403.7907
   1426.71387     483.1155     406.3806   1426.71387     483.1155     406.3806
   1426.69861     485.7289     408.6032   1426.69861     485.7289     408.6032
   1426.68335     488.3720     411.2033   1426.68335     488.3720     411.2033
   1426.66809     491.3823     412.9090   1426.66809     491.3823     412.9090
   1426.65283     493.6285     416.2148   1426.65283     493.6285     416.2148
   1426.63757     496.7003     417.9474   1426.63757     496.7003     417.9474
   1426.62231     500.6291     423.6181   1426.62231     500.6291     423.6181
   1426.60706     502.0071     423.6634   1426.60706     502.0071     423.6634
   1426.59180     504.9282     424.5598   1426.59180     504.9282     424.5598
   1426.57654     508.0407     427.8227   1426.57654     508.0407     427.8227
   1426.56128     509.8145     429.7883   1426.56128     509.8145     429.7883
   1426.54602     512.7965     432.5309   1426.54602     512.7965     432.5309
   1426.53076     515.6824     434.0357   1426.53076     515.6824     434.0357
   1426.51550     518.2968     436.9169   1426.51550     518.2968     436.9169
   1426.50024     521.2631     438.8289   1426.50024     521.2631     438.8289
   1426.48499     523.9550     441.7418   1426.48499     523.9550     441.7418
   1426.46973     525.8661     443.1117   1426.46973     525.8661     443.1117
   1426.45447     529.6880     446.3785   1426.45447     529.6880     446.3785
   1426.43921     531.8708     447.7888   1426.43921     531.8708     447.7888
   1426.42395     535.3015     450.4292   1426.42395     535.3015     450.4292
   1426.40869     537.3932     451.8410   1426.40869     537.3932     451.8410
   1426.39343     540.0334     454.6537   1426.39343     540.0334     454.6537
   1426.37817     543.1146     456.9082   1426.37817     543.1146     456.9082
   1426.36292     545.1990     460.0588   1426.36292     545.1990     460.0588
   1426.34766     548.2040     460.9298   1426.34766     548.2040     460.9298
   1426.33240     550.7970     463.0479   1426.33240     550.7970     463.0479
   1426.31714     553.2454     465.2647   1426.31714     553.2454     465.2647
   1426.30188     555.8190     467.7002   1426.30188     555.8190     467.7002
   1426.28662     558.2776     470.2196   1426.28662     558.2776     470.2196
   1426.27136     560.8951     472.7360   1426.27136     560.8951     472.7360
   1426.25610     563.7567     474.6831   1426.25610     563.7567     474.6831
   1426.24084     565.1920     477.1301   1426.24084     565.1920     477.1301
   1426.22559     567.7034     478.5731   1426.22559     567.7034     478.5731
   1426.21033     570.6987     480.3900   1426.21033     570.6987     480.3900
   1426.19507     572.2290     482.3003   1426.19507     572.2290     482.3003
   1426.17981     574.8429     483.8354   1426.17981     574.8429     483.8354
   1426.16455     578.3137     485.7101   1426.16455     578.3137     485.7101
   1426.14929     580.0967     488.4206   1426.14929     580.0967     488.4206
   1426.13403     582.3603     490.2943   1426.13403     582.3603     490.2943
   1426.11877     585.4559     492.0662   1426.11877     585.4559     492.0662
   1426.10352     586.2941     493.3911   1426.10352     586.2941     493.3911
   1426.08826     589.3135     496.6050   1426.08826     589.3135     496.6050
   1426.07300     591.8553     497.9950   1426.07300     591.8553     497.9950
   1426.05774     594.8175     500.4219   1426.05774     594.8175     500.4219
   1426.04248     596.6014     502.0904   1426.04248     596.6014     502.0904
   1426.02722     598.3430     504.1746   1426.02722     598.3430     504.1746
   1426.01196     600.6111     505.7129   1426.01196     600.6111     505.7129
   1425.99670     603.2359     507.3348   1425.99670     603.2359     507.3348
   1425.98145     604.2354     508.3353   1425.98145     604.2354     508.3353
   1425.96619     607.2255     510.4313   1425.96619     607.2255     510.4313
   1425.95093     608.2058     512.5217   1425.95093     608.2058     512.5217
   1425.93567     610.0554     514.1542   1425.93567     610.0554     514.1542
   1425.92041     612.6839     516.3383   1425.92041     612.6839     516.3383
   1425.90515     615.7968     517.4846   1425.90515     615.7968     517.4846
   1425.88989     617.3229     519.8799   1425.88989     617.3229     519.8799
   1425.87463     618.6528     521.7640   1425.87463     618.6528     521.7640
   1425.85938     620.1044     523.0382   1425.85938     620.1044     523.0382
   1425.84412     622.3207     524.1973   1425.84412     622.3207     524.1973
   1425.82886     624.7200     526.3704   1425.82886     624.7200     526.3704
   1425.81360     626.1114     526.9496   1425.81360     626.1114     526.9496
   1425.79834     628.3401     529.4805   1425.79834     628.3401     529.4805
   1425.78308     629.4332     530.6115   1425.78308     629.4332     530.6115
   1425.76782     632.0399     532.1547   1425.76782     632.0399     532.1547
   1425.75256     633.1926     533.7812   1425.75256     633.1926     533.7812
   1425.73730     635.1640     535.5452   1425.73730     635.1640     535.5452
   1425.72205     636.6310     536.7667   1425.72205     636.6310     536.7667
   1425.70679     639.0019     538.5541   1425.70679     639.0019     538.5541
   1425.69153     640.8556     539.4054   1425.69153     640.8556     539.4054
   1425.67627     641.7490     541.7444   1425.67627     641.7490     541.7444
   1425.66101     643.1146     542.1425   1425.66101     643.1146     542.1425
   1425.64575     644.9803     544.5800   1425.64575     644.9803     544.5800
   1425.63049     645.8074     545.8028   1425.63049     645.8074     545.8028
   1425.61523     647.1987     546.6709   1425.61523     647.1987     546.6709
   1425.59998     648.7607     549.0117   1425.59998     648.7607     549.0117
   1425.58472     650.8907     549.7223   1425.58472     650.8907     549.7223
   1425.56946     652.8315     551.2333   1425.56946     652.8315     551.2333
   1425.55420     653.2567     552.5732   1425.55420     653.2567     552.5732
   1425.53894     654.7155     552.8015   1425.53894     654.7155     552.8015
   1425.52368     655.2568     555.7792   1425.52368     655.2568     555.7792
   1425.50842     655.7040     557.2282   1425.50842     655.7040     557.2282
   1425.49316     658.2502     558.6969   1425.49316     658.2502     558.6969
   1425.47791     659.9407     559.4741   1425.47791     659.9407     559.4741
   1425.46265     661.4181     561.0512   1425.46265     661.4181     561.0512
   1425.44739     661.9427     561.0648   1425.44739     661.9427     561.0648
   1425.43213     662.7615     562.5573   1425.43213     662.7615     562.5573
   1425.41687     665.6646     566.1809   1425.41687     665.6646     566.1809
   1425.40161     665.6449     565.5389   1425.40161     665.6449     565.5389
   1425.38635     666.6036     566.5250   1425.38635     666.6036     566.5250
   1425.37109     667.4697     567.6924   1425.37109     667.4697     567.6924
   1425.35583     667.8378     568.7025   1425.35583     667.8378     568.7025
   1425.34058     668.9863     570.7306   1425.34058     668.9863     570.7306
   1425.32532     670.4437     570.5778   1425.32532     670.4437     570.5778
   1425.31006     670.6419     571.9271   1425.31006     670.6419     571.9271
   1425.29480     671.5613     573.7994   1425.29480     671.5613     573.7994
   1425.27954     673.2015     574.1633   1425.27954     673.2015     574.1633
   1425.26428     675.6902     576.4424   1425.26428     675.6902     576.4424
   1425.24902     674.0609     576.3067   1425.24902     674.0609     576.3067
   1425.23376     675.1998     576.7891   1425.23376     675.1998     576.7891
   1425.21851     676.8524     579.1179   1425.21851     676.8524     579.1179
   1425.20325     677.4688     579.4284   1425.20325     677.4688     579.4284
   1425.18799     677.5271     580.1526   1425.18799     677.5271     580.1526
   1425.17273     680.1278     582.7630   1425.17273     680.1278     582.7630
   1425.15747     679.6827     582.8955   1425.15747     679.6827     582.8955
   1425.14221     680.7310     584.7190   1425.14221     680.7310     584.7190
   1425.12695     680.0594     584.0946   1425.12695     680.0594     584.0946
   1425.11169     681.4362     586.3116   1425.11169     681.4362     586.3116
   1425.09644     682.5958     586.5421   1425.09644     682.5958     586.5421
   1425.08118     682.2405     587.4329   1425.08118     682.2405     587.4329
   1425.06592     683.4802     588.8468   1425.06592     683.4802     588.8468
   1425.05066     684.9092     589.1208   1425.05066     684.9092     589.1208
   1425.03540     684.5067     591.3497   1425.03540     684.5067     591.3497
   1425.02014     685.1037     591.8268   1425.02014     685.1037     591.8268
   1425.00488     685.2067     593.2411   1425.00488     685.2067     593.2411
   1424.98962     685.8525     593.5673   1424.98962     685.8525     593.5673
   1424.97437     686.7795     593.6523   1424.97437     686.7795     593.6523
   1424.95911     687.7144     595.1932   1424.95911     687.7144     595.1932
   1424.94385     688.6697     596.6321   1424.94385     688.6697     596.6321
   1424.92859     689.0571     597.3774   1424.92859     689.0571     597.3774
   1424.91333     690.4366     598.4780   1424.91333     690.4366     598.4780
   1424.89807     689.3195     600.3865   1424.89807     689.3195     600.3865
   1424.88281     689.5012     600.4785   1424.88281     689.5012     600.4785
   1424.86755     690.2729     601.4073   1424.86755     690.2729     601.4073
   1424.85229     690.1152     601.5381   1424.85229     690.1152     601.5381
   1424.83704     691.2821     602.3070   1424.83704     691.2821     602.3070
   1424.82178     690.2272     602.6410   1424.82178     690.2272     602.6410
   1424.80652     690.2675     604.4327   1424.80652     690.2675     604.4327
   1424.79126     690.9885     603.5746   1424.79126     690.9885     603.5746
   1424.77600     690.8692     604.5563   1424.77600     690.8692     604.5563
   1424.76074     690.6933     605.5984   1424.76074     690.6933     605.5984
   1424.74548     690.3659     607.0789   1424.74548     690.3659     607.0789
   1424.73022     692.5798     606.9677   1424.73022     692.5798     606.9677
   1424.71497     691.6987     608.4743   1424.71497     691.6987     608.4743
   1424.69971     692.6531     608.9890   1424.69971     692.6531     608.9890
   1424.68445     691.7959     609.4576   1424.68445     691.7959     609.4576
   1424.66919     691.4879     610.3621   1424.66919     691.4879     610.3621
   1424.65393     692.2096     610.6244   1424.65393     692.2096     610.6244
   1424.63867     693.4302     611.5463   1424.63867     693.4302     611.5463
   1424.62341     693.5095     611.9702   1424.62341     693.5095     611.9702
   1424.60815     692.8248     611.7874   1424.60815     692.8248     611.7874
   1424.59290     693.1327     613.1401   1424.59290     693.1327     613.1401
   1424.57764     693.6873     613.4213   1424.57764     693.6873     613.4213
   1424.56238     693.4437     614.3445   1424.56238     693.4437     614.3445
   1424.54712     693.3021     615.3184   1424.54712     693.3021     615.3184
   1424.53186     692.8637     615.9763   1424.53186     692.8637     615.9763
   1424.51660     693.1558     617.1497   1424.51660     693.1558     617.1497
   1424.50134     693.8583     617.2775   1424.50134     693.8583     617.2775
   1424.48608     693.8234     618.4370   1424.48608     693.8234     618.4370
   1424.47083     692.8263     618.2941   1424.47083     692.8263     618.2941
   1424.45557     693.8118     618.5842   1424.45557     693.8118     618.5842
   1424.44031     693.5253     619.5333   1424.44031     693.5253     619.5333
   1424.42505     693.9749     619.5401   1424.42505     693.9749     619.5401
   1424.40979     694.3625     620.8067   1424.40979     694.3625     620.8067
   1424.39453     693.5131     621.6233   1424.39453     693.5131     621.6233
   1424.37927     693.1819     622.4064   1424.37927     693.1819     622.4064
   1424.36401     693.0638     622.7759   1424.36401     693.0638     622.7759
   1424.34875     693.4555     622.9783   1424.34875     693.4555     622.9783
   1424.33350     693.2006     623.7610   1424.33350     693.2006     623.7610
   1424.31824     694.1599     623.7086   1424.31824     694.1599     623.7086
   1424.30298     692.2157     625.5195   1424.30298     692.2157     625.5195
   1424.28772     693.8016     625.6673   1424.28772     693.8016     625.6673
   1424.27246     693.5892     625.0620   1424.27246     693.5892     625.0620
   1424.25720     692.0360     625.7543   1424.25720     692.0360     625.7543
   1424.24194     692.5151     626.4321   1424.24194     692.5151     626.4321
   1424.22668     692.1206     626.5260   1424.22668     692.1206     626.5260
   1424.21143     691.8448     626.6685   1424.21143     691.8448     626.6685
   1424.19617     692.2072     627.4829   1424.19617     692.2072     627.4829
   1424.18091     692.0950     628.4309   1424.18091     692.0950     628.4309
   1424.16565     692.3718     629.3488   1424.16565     692.3718     629.3488
   1424.15039     691.9872     629.2050   1424.15039     691.9872     629.2050
   1424.13513     691.8351     629.2427   1424.13513     691.8351     629.2427
   1424.11987     692.7698     630.6573   1424.11987     692.7698     630.6573
   1424.10461     692.1344     632.3366   1424.10461     692.1344     632.3366
   1424.08936     692.3657     631.1818   1424.08936     692.3657     631.1818
   1424.07410     691.1497     631.5338   1424.07410     691.1497     631.5338
   1424.05884     690.7614     630.9982   1424.05884     690.7614     630.9982
   1424.04358     691.9807     632.0531   1424.04358     691.9807     632.0531
   1424.02832     690.2947     632.6668   1424.02832     690.2947     632.6668
   1424.01306     690.8228     633.1855   1424.01306     690.8228     633.1855
   1423.99780     690.1837     632.4531   1423.99780     690.1837     632.4531
   1423.98254     691.0415     633.8373   1423.98254     691.0415     633.8373
   1423.96729     690.5484     633.9890   1423.96729     690.5484     633.9890
   1423.95203     691.0298     633.8799   1423.95203     691.0298     633.8799
   1423.93677     689.4604     634.9815   1423.93677     689.4604     634.9815
   1423.92151     691.2314     635.2698   1423.92151     691.2314     635.2698
   1423.90625     690.1746     635.7447   1423.90625     690.1746     635.7447
   1423.89099     689.9191     635.6577   1423.89099     689.9191     635.6577
   1423.87573     689.8709     636.5547   1423.87573     689.8709     636.5547
   1423.86047     690.2617     636.8729   1423.86047     690.2617     636.8729
   1423.84521     689.9152     636.6313   1423.84521     689.9152     636.6313
   1423.82996     689.7944     637.3304   1423.82996     689.7944     637.3304
   1423.81470     690.2830     637.0639   1423.81470     690.2830     637.0639
   1423.79944     689.0295     637.6182   1423.79944     689.0295     637.6182
   1423.78418     689.3116     638.3664   1423.78418     689.3116     638.3664
   1423.76892     689.4874     637.9227   1423.76892     689.4874     637.9227
   1423.75366     689.4691     638.6694   1423.75366     689.4691     638.6694
   1423.73840     688.1934     637.9174   1423.73840     688.1934     637.9174
   1423.72314     688.1878     637.5127   1423.72314     688.1878     637.5127
   1423.70789     688.9335     638.7498   1423.70789     688.9335     638.7498
   1423.69263     687.5651     639.1999   1423.69263     687.5651     639.1999
   1423.67737     688.3108     639.0549   1423.67737     688.3108     639.0549
   1423.66211     688.2952     638.4266   1423.66211     688.2952     638.4266
   1423.64685     686.6946     639.8040   1423.64685     686.6946     639.8040
   1423.63159     686.3354     640.8471   1423.63159     686.3354     640.8471
   1423.61633     687.0474     638.4947   1423.61633     687.0474     638.4947
   1423.60107     687.2515     641.0678   1423.60107     687.2515     641.0678
   1423.58582     686.6103     640.5972   1423.58582     686.6103     640.5972
   1423.57056     686.3885     639.8928   1423.57056     686.3885     639.8928
   1423.55530     686.4333     640.6440   1423.55530     686.4333     640.6440
   1423.54004     685.4435     639.6362   1423.54004     685.4435     639.6362
   1423.52478     686.4927     640.0897   1423.52478     686.4927     640.0897
   1423.50952     686.0582     640.9781   1423.50952     686.0582     640.9781
   1423.49426     685.2473     640.7224   1423.49426     685.2473     640.7224
   1423.47900     686.8403     640.4771   1423.47900     686.8403     640.4771
   1423.46375     686.5452     640.9713   1423.46375     686.5452     640.9713
   1423.44849     685.2715     641.0563   1423.44849     685.2715     641.0563
   1423.43323     685.5679     640.8008   1423.43323     685.5679     640.8008
   1423.41797     684.4138     639.6005   1423.41797     684.4138     639.6005
   1423.40271     684.8013     640.5021   1423.40271     684.8013     640.5021
   1423.38745     685.1254     641.4466   1423.38745     685.1254     641.4466
   1423.37219     685.1470     641.8123   1423.37219     685.1470     641.8123
   1423.35693     684.0842     640.1807   1423.35693     684.0842     640.1807
   1423.34167     683.6315     640.6985   1423.34167     683.6315     640.6985
   1423.32642     684.2341     639.9962   1423.32642     684.2341     639.9962
   1423.31116     684.0273     639.3391   1423.31116     684.0273     639.3391
   1423.29590     683.5328     639.6473   1423.29590     683.5328     639.6473
   1423.28064     684.0764     639.7314   1423.28064     684.0764     639.7314
   1423.26538     683.1747     640.0869   1423.26538     683.1747     640.0869
   1423.25012     683.0148     639.2787   1423.25012     683.0148     639.2787
   1423.23486     683.0408     639.3516   1423.23486     683.0408     639.3516
   1423.21960     682.0386     638.7507   1423.21960     682.0386     638.7507
   1423.20435     681.6949     637.5435   1423.20435     681.6949     637.5435
   1423.18909     683.1987     638.4001   1423.18909     683.1987     638.4001
   1423.17383     682.3757     637.5991   1423.17383     682.3757     637.5991
   1423.15857     682.7713     636.7689   1423.15857     682.7713     636.7689
   1423.14331     681.1157     637.8431   1423.14331     681.1157     637.8431
   1423.12805     680.9100     635.9848   1423.12805     680.9100     635.9848
   1423.11279     682.3630     636.4214   1423.11279     682.3630     636.4214
   1423.09753     681.6793     637.2275   1423.09753     681.6793     637.2275
   1423.08228     681.2548     635.4545   1423.08228     681.2548     635.4545
   1423.06702     680.2410     636.1501   1423.06702     680.2410     636.1501
   1423.05176     680.1105     635.5887   1423.05176     680.1105     635.5887
   1423.03650     679.6805     634.2645   1423.03650     679.6805     634.2645
   1423.02124     680.8358     634.0345   1423.02124     680.8358     634.0345
   1423.00598     680.8354     635.0121   1423.00598     680.8354     635.0121
   1422.99072     679.8150     633.0952   1422.99072     679.8150     633.0952
   1422.97546     680.8694     632.4428   1422.97546     680.8694     632.4428
   1422.96021     679.8429     633.8698   1422.96021     679.8429     633.8698
   1422.94495     679.4801     631.4249   1422.94495     679.4801     631.4249
   1422.92969     679.6699     631.6048   1422.92969     679.6699     631.6048
   1422.91443     678.9371     630.9836   1422.91443     678.9371     630.9836
   1422.89917     678.5846     629.9305   1422.89917     678.5846     629.9305
   1422.88391     678.7838     630.3275   1422.88391     678.7838     630.3275
   1422.86865     678.9489     628.5092   1422.86865     678.9489     628.5092
   1422.85339     677.9965     629.7065   1422.85339     677.9965     629.7065
   1422.83813     679.5130     627.5977   1422.83813     679.5130     627.5977
   1422.82288     677.8001     628.4234   1422.82288     677.8001     628.4234
   1422.80762     678.1732     626.3148   1422.80762     678.1732     626.3148
   1422.79236     677.4164     624.8798   1422.79236     677.4164     624.8798
   1422.77710     676.8865     624.6200   1422.77710     676.8865     624.6200
   1422.76184     677.6515     625.2181   1422.76184     677.6515     625.2181
   1422.74658     677.2743     624.1422   1422.74658     677.2743     624.1422
   1422.73132     676.8495     622.1649   1422.73132     676.8495     622.1649
   1422.71606     676.6682     622.0004   1422.71606     676.6682     622.0004
   1422.70081     675.7860     621.9424   1422.70081     675.7860     621.9424
   1422.68555     675.2073     621.2015   1422.68555     675.2073     621.2015
   1422.67029     676.3051     619.7792   1422.67029     676.3051     619.7792
   1422.65503     675.8635     619.5347   1422.65503     675.8635     619.5347
   1422.63977     676.2089     618.6442   1422.63977     676.2089     618.6442
   1422.62451     675.8793     616.5161   1422.62451     675.8793     616.5161
   1422.60925     675.3027     616.8704   1422.60925     675.3027     616.8704
   1422.59399     675.4480     615.6193   1422.59399     675.4480     615.6193
   1422.57874     673.6259     614.5043   1422.57874     673.6259     614.5043
   1422.56348     675.2944     614.7917   1422.56348     675.2944     614.7917
   1422.54822     675.2750     613.0907   1422.54822     675.2750     613.0907
   1422.53296     674.3743     612.3532   1422.53296     674.3743     612.3532
   1422.51770     674.8144     610.4241   1422.51770     674.8144     610.4241
   1422.50244     674.3243     610.9299   1422.50244     674.3243     610.9299
   1422.48718     673.1284     609.5010   1422.48718     673.1284     609.5010
   1422.47192     673.9915     608.6920   1422.47192     673.9915     608.6920
   1422.45667     672.8638     606.6509   1422.45667     672.8638     606.6509
   1422.44141     673.0545     606.1936   1422.44141     673.0545     606.1936
   1422.42615     673.4969     605.4490   1422.42615     673.4969     605.4490
   1422.41089     673.1936     603.9561   1422.41089     673.1936     603.9561
   1422.39563     672.0967     603.4726   1422.39563     672.0967     603.4726
   1422.38037     673.0920     600.7659   1422.38037     673.0920     600.7659
   1422.36511     670.5971     600.9193   1422.36511     670.5971     600.9193
   1422.34985     672.1581     599.9712   1422.34985     672.1581     599.9712
   1422.33459     673.0728     599.7333   1422.33459     673.0728     599.7333
   1422.31934     672.2952     597.8848   1422.31934     672.2952     597.8848
   1422.30408     671.2589     597.0377   1422.30408     671.2589     597.0377
   1422.28882     671.8641     595.4657   1422.28882     671.8641     595.4657
   1422.27356     670.8700     593.8453   1422.27356     670.8700     593.8453
   1422.25830     670.5196     594.1287   1422.25830     670.5196     594.1287
   1422.24304     670.7228     593.1896   1422.24304     670.7228     593.1896
   1422.22778     670.4918     591.5098   1422.22778     670.4918     591.5098
   1422.21252     671.2363     590.5144   1422.21252     671.2363     590.5144
   1422.19727     670.9705     589.2267   1422.19727     670.9705     589.2267
   1422.18201     669.3779     587.6876   1422.18201     669.3779     587.6876
   1422.16675     668.8330     586.5289   1422.16675     668.8330     586.5289
   1422.15149     668.0775     585.4499   1422.15149     668.0775     585.4499
   1422.13623     668.7918     583.5977   1422.13623     668.7918     583.5977
   1422.12097     669.1871     582.8876   1422.12097     669.1871     582.8876
   1422.10571     668.7968     582.0229   1422.10571     668.7968     582.0229
   1422.09045     668.3037     579.9855   1422.09045     668.3037     579.9855
   1422.07520     667.8953     579.2953   1422.07520     667.8953     579.2953
   1422.05994     667.7885     578.0571   1422.05994     667.7885     578.0571
   1422.04468     667.4133     576.4391   1422.04468     667.4133     576.4391
   1422.02942     667.8597     575.5410   1422.02942     667.8597     575.5410
   1422.01416     667.7445     573.1422   1422.01416     667.7445     573.1422
   1421.99890     667.8414     572.4245   1421.99890     667.8414     572.4245
   1421.98364     667.5131     571.2044   1421.98364     667.5131     571.2044
   1421.96838     666.9720     568.9036   1421.96838     666.9720     568.9036
   1421.95312     667.7128     568.8876   1421.95312     667.7128     568.8876
   1421.93787     667.3154     568.2225   1421.93787     667.3154     568.2225
   1421.92261     665.7484     567.3434   1421.92261     665.7484     567.3434
   1421.90735     665.7817     564.6143   1421.90735     665.7817     564.6143
   1421.89209     666.3519     564.2515   1421.89209     666.3519     564.2515
   1421.87683     665.3198     562.5204   1421.87683     665.3198     562.5204
   1421.86157     665.5756     560.9789   1421.86157     665.5756     560.9789
   1421.84631     664.6709     559.5892   1421.84631     664.6709     559.5892
   1421.83105     664.6183     558.0391   1421.83105     664.6183     558.0391
   1421.81580     665.6299     556.3108   1421.81580     665.6299     556.3108
   1421.80054     665.1876     555.8871   1421.80054     665.1876     555.8871
   1421.78528     665.6584     554.8658   1421.78528     665.6584     554.8658
   1421.77002     664.2203     553.0624   1421.77002     664.2203     553.0624
   1421.75476     665.4591     550.0576   1421.75476     665.4591     550.0576
   1421.73950     664.5491     550.9106   1421.73950     664.5491     550.9106
   1421.72424     663.3159     548.5671   1421.72424     663.3159     548.5671
   1421.70898     665.4965     547.5942   1421.70898     665.4965     547.5942
   1421.69373     664.8483     546.3569   1421.69373     664.8483     546.3569
   1421.67847     664.2797     544.7879   1421.67847     664.2797     544.7879
   1421.66321     663.1472     543.5319   1421.66321     663.1472     543.5319
   1421.64795     663.4503     542.0385   1421.64795     663.4503     542.0385
   1421.63269     662.0554     540.2960   1421.63269     662.0554     540.2960
   1421.61743     662.2012     539.5422   1421.61743     662.2012     539.5422
   1421.60217     662.3676     538.8269   1421.60217     662.3676     538.8269
   1421.58691     662.2161     536.9057   1421.58691     662.2161     536.9057
   1421.57166     662.9252     535.0733   1421.57166     662.9252     535.0733
   1421.55640     661.9592     534.6393   1421.55640     661.9592     534.6393
   1421.54114     661.3697     533.2554   1421.54114     661.3697     533.2554
   1421.52588     662.0815     531.4696   1421.52588     662.0815     531.4696
   1421.51062     661.9245     530.6748   1421.51062     661.9245     530.6748
   1421.49536     661.4560     528.6124   1421.49536     661.4560     528.6124
   1421.48010     661.7713     526.9373   1421.48010     661.7713     526.9373
   1421.46484     662.0409     525.0159   1421.46484     662.0409     525.0159
   1421.44958     660.5895     524.9714   1421.44958     660.5895     524.9714
   1421.43433     661.0110     523.0511   1421.43433     661.0110     523.0511
   1421.41907     660.6163     522.0238   1421.41907     660.6163     522.0238
   1421.40381     660.2792     520.9775   1421.40381     660.2792     520.9775
   1421.38855     660.5886     520.1620   1421.38855     660.5886     520.1620
   1421.37329     660.4263     518.2348   1421.37329     660.4263     518.2348
   1421.35803     660.0680     517.3333   1421.35803     660.0680     517.3333
   1421.34277     661.1688     517.1595   1421.34277     661.1688     517.1595
   1421.32751     660.2198     514.1130   1421.32751     660.2198     514.1130
   1421.31226     660.3654     514.0204   1421.31226     660.3654     514.0204
   1421.29700     660.7571     512.0754   1421.29700     660.7571     512.0754
   1421.28174     659.8782     510.8571   1421.28174     659.8782     510.8571
   1421.26648     660.9875     510.1589   1421.26648     660.9875     510.1589
   1421.25122     660.9738     509.0800   1421.25122     660.9738     509.0800
   1421.23596     661.7693     507.9125   1421.23596     661.7693     507.9125
   1421.22070     663.8621     509.2140   1421.22070     663.8621     509.2140
   1421.20544     664.9776     508.7384   1421.20544     664.9776     508.7384
   1421.19019     668.1769     508.6140   1421.19019     668.1769     508.6140
   1421.17493     668.3831     509.7737   1421.17493     668.3831     509.7737
   1421.15967     670.8445     508.6351   1421.15967     670.8445     508.6351
   1421.14441     670.8322     508.0797   1421.14441     670.8322     508.0797
   1421.12915     671.3315     507.8883   1421.12915     671.3315     507.8883
   1421.11389     673.3643     507.6802   1421.11389     673.3643     507.6802
   1421.09863     673.6643     507.4200   1421.09863     673.6643     507.4200
   1421.08337     677.6671     508.4758   1421.08337     677.6671     508.4758
   1421.06812     684.2958     511.1776   1421.06812     684.2958     511.1776
   1421.05286     692.5391     517.0439   1421.05286     692.5391     517.0439
   1421.03760     707.0295     526.7367   1421.03760     707.0295     526.7367
   1421.02234     732.2662     543.4984   1421.02234     732.2662     543.4984
   1421.00708     772.9954     570.4254   1421.00708     772.9954     570.4254
   1420.99182     838.5201     616.4659   1420.99182     838.5201     616.4659
   1420.97656     932.6569     683.2953   1420.97656     932.6569     683.2953
   1420.96130    1035.9271     754.4317   1420.96130    1035.9271     754.4317
   1420.94604    1129.9353     823.4766   1420.94604    1129.9353     823.4766
   1420.93079    1243.7836     901.9863   1420.93079    1243.7836     901.9863
   1420.91553    1289.2758     932.0189   1420.91553    1289.2758     932.0189
   1420.90027    1198.6681     863.4536   1420.90027    1198.6681     863.4536
   1420.88501    1101.5125     787.2367   1420.88501    1101.5125     787.2367
   1420.86975    1000.6339     716.4905   1420.86975    1000.6339     716.4905
   1420.85449     926.6240     662.9220   1420.85449     926.6240     662.9220
   1420.83923     904.5144     647.0247   1420.83923     904.5144     647.0247
   1420.82397     955.7900     683.1749   1420.82397     955.7900     683.1749
   1420.80872    1105.1082     785.8796   1420.80872    1105.1082     785.8796
   1420.79346    1300.2247     919.9574   1420.79346    1300.2247     919.9574
   1420.77820    1523.6078    1072.2177   1420.77820    1523.6078    1072.2177
   1420.76294    1740.4115    1218.0994   1420.76294    1740.4115    1218.0994
   1420.74768    1859.2139    1299.4277   1420.74768    1859.2139    1299.4277
   1420.73242    1808.1320    1260.4598   1420.73242    1808.1320    1260.4598
   1420.71716    1551.3462    1084.9097   1420.71716    1551.3462    1084.9097
   1420.70190    1309.1378     915.7950   1420.70190    1309.1378     915.7950
   1420.68665    1063.1708     742.6488   1420.68665    1063.1708     742.6488
   1420.67139     951.0143     665.8271   1420.67139     951.0143     665.8271
   1420.65613    1009.8596     703.8489   1420.65613    1009.8596     703.8489
   1420.64087    1227.6511     851.0627   1420.64087    1227.6511     851.0627
   1420.62561    1562.2167    1074.7236   1420.62561    1562.2167    1074.7236
   1420.61035    1737.9736    1192.6512   1420.61035    1737.9736    1192.6512
   1420.59509    1686.0699    1152.0759   1420.59509    1686.0699    1152.0759
   1420.57983    1579.4227    1079.1323   1420.57983    1579.4227    1079.1323
   1420.56458    1625.6660    1107.4886   1420.56458    1625.6660    1107.4886
   1420.54932    1749.4265    1185.7200   1420.54932    1749.4265    1185.7200
   1420.53406    1789.5077    1210.1226   1420.53406    1789.5077    1210.1226
   1420.51880    1749.6526    1179.9180   1420.51880    1749.6526    1179.9180
   1420.50354    1573.9133    1060.1482   1420.50354    1573.9133    1060.1482
   1420.48828    1179.3093     797.6467   1420.48828    1179.3093     797.6467
   1420.47302     935.1060     636.7092   1420.47302     935.1060     636.7092
   1420.45776     799.9895     545.4276   1420.45776     799.9895     545.4276
   1420.44250     728.8004     495.9743   1420.44250     728.8004     495.9743
   1420.42725     697.6146     475.1648   1420.42725     697.6146     475.1648
   1420.41199     681.6524     464.9394   1420.41199     681.6524     464.9394
   1420.39673     675.8734     458.7705   1420.39673     675.8734     458.7705
   1420.38147     671.9903     454.7893   1420.38147     671.9903     454.7893
   1420.36621     671.2939     453.8687   1420.36621     671.2939     453.8687
   1420.35095     673.9799     453.7466   1420.35095     673.9799     453.7466
   1420.33569     674.3311     453.5055   1420.33569     674.3311     453.5055
   1420.32043     671.7082     450.8220   1420.32043     671.7082     450.8220
   1420.30518     667.9511     447.5525   1420.30518     667.9511     447.5525
   1420.28992     666.4274     444.5320   1420.28992     666.4274     444.5320
   1420.27466     664.6274     442.3928   1420.27466     664.6274     442.3928
   1420.25940     662.5961     441.5340   1420.25940     662.5961     441.5340
   1420.24414     661.1646     440.8247   1420.24414     661.1646     440.8247
   1420.22888     660.8213     439.7860   1420.22888     660.8213     439.7860
   1420.21362     660.7574     438.3026   1420.21362     660.7574     438.3026
   1420.19836     658.8868     436.5424   1420.19836     658.8868     436.5424
   1420.18311     656.9323     434.8253   1420.18311     656.9323     434.8253
   1420.16785     657.1339     433.7504   1420.16785     657.1339     433.7504
   1420.15259     656.6913     432.2208   1420.15259     656.6913     432.2208
   1420.13733     656.2354     431.5157   1420.13733     656.2354     431.5157
   1420.12207     654.3768     430.8310   1420.12207     654.3768     430.8310
   1420.10681     654.8737     429.8281   1420.10681     654.8737     429.8281
   1420.09155     654.8317     428.8379   1420.09155     654.8317     428.8379
   1420.07629     654.7137     427.7516   1420.07629     654.7137     427.7516
   1420.06104     653.8432     426.8592   1420.06104     653.8432     426.8592
   1420.04578     654.1777     425.9626   1420.04578     654.1777     425.9626
   1420.03052     653.7148     425.4277   1420.03052     653.7148     425.4277
   1420.01526     653.9248     425.6851   1420.01526     653.9248     425.6851
   1420.00000     655.9144     425.6579   1420.00000     655.9144     425.6579
   1419.98474     657.9037     425.6306   1419.98474     657.9037     425.6306
   1419.96948     657.3666     424.0021   1419.96948     657.3666     424.0021
   1419.95422     653.8887     422.4680   1419.95422     653.8887     422.4680
   1419.93896     655.3770     421.9475   1419.93896     655.3770     421.9475
   1419.92371     655.6049     420.9098   1419.92371     655.6049     420.9098
   1419.90845     654.5438     421.2518   1419.90845     654.5438     421.2518
   1419.89319     655.5743     420.4927   1419.89319     655.5743     420.4927
   1419.87793     654.6971     420.0497   1419.87793     654.6971     420.0497
   1419.86267     655.6453     420.0790   1419.86267     655.6453     420.0790
   1419.84741     656.2326     418.5766   1419.84741     656.2326     418.5766
   1419.83215     656.3422     418.3336   1419.83215     656.3422     418.3336
   1419.81689     656.3221     418.9393   1419.81689     656.3221     418.9393
   1419.80164     657.3073     417.9780   1419.80164     657.3073     417.9780
   1419.78638     657.3423     417.7504   1419.78638     657.3423     417.7504
   1419.77112     657.3240     416.7915   1419.77112     657.3240     416.7915
   1419.75586     657.5502     416.9490   1419.75586     657.5502     416.9490
   1419.74060     659.0280     416.1034   1419.74060     659.0280     416.1034
   1419.72534     658.0633     415.5029   1419.72534     658.0633     415.5029
   1419.71008     658.4555     414.9121   1419.71008     658.4555     414.9121
   1419.69482     658.7328     415.3192   1419.69482     658.7328     415.3192
   1419.67957     660.2635     415.1777   1419.67957     660.2635     415.1777
   1419.66431     658.6493     413.7871   1419.66431     658.6493     413.7871
   1419.64905     658.8895     414.5267   1419.64905     658.8895     414.5267
   1419.63379     661.0010     414.3337   1419.63379     661.0010     414.3337
   1419.61853     661.0678     414.3559   1419.61853     661.0678     414.3559
   1419.60327     660.9066     414.2785   1419.60327     660.9066     414.2785
   1419.58801     662.1074     413.2107   1419.58801     662.1074     413.2107
   1419.57275     661.1148     413.1332   1419.57275     661.1148     413.1332
   1419.55750     661.7327     413.1516   1419.55750     661.7327     413.1516
   1419.54224     661.6858     412.6133   1419.54224     661.6858     412.6133
   1419.52698     663.1951     412.2981   1419.52698     663.1951     412.2981
   1419.51172     664.2352     412.8976   1419.51172     664.2352     412.8976
   1419.49646     663.3991     412.4868   1419.49646     663.3991     412.4868
   1419.48120     663.7343     411.6914   1419.48120     663.7343     411.6914
   1419.46594     664.6692     411.7089   1419.46594     664.6692     411.7089
   1419.45068     664.6088     412.2516   1419.45068     664.6088     412.2516
   1419.43542     665.5500     411.9089   1419.43542     665.5500     411.9089
   1419.42017     666.5647     411.5438   1419.42017     666.5647     411.5438
   1419.40491     665.9233     411.3394   1419.40491     665.9233     411.3394
   1419.38965     666.3864     411.4297   1419.38965     666.3864     411.4297
   1419.37439     666.5240     411.3365   1419.37439     666.5240     411.3365
   1419.35913     666.8553     411.2158   1419.35913     666.8553     411.2158
   1419.34387     667.7991     410.7951   1419.34387     667.7991     410.7951
   1419.32861     667.7534     410.9637   1419.32861     667.7534     410.9637
   1419.31335     668.3269     410.7723   1419.31335     668.3269     410.7723
   1419.29810     668.6075     410.7097   1419.29810     668.6075     410.7097
   1419.28284     669.2610     411.4188   1419.28284     669.2610     411.4188
   1419.26758     671.0348     410.9442   1419.26758     671.0348     410.9442
   1419.25232     669.0714     411.3481   1419.25232     669.0714     411.3481
   1419.23706     671.0868     410.3691   1419.23706     671.0868     410.3691
   1419.22180     670.9980     410.9461   1419.22180     670.9980     410.9461
   1419.20654     672.0333     410.8654   1419.20654     672.0333     410.8654
   1419.19128     672.5768     411.4204   1419.19128     672.5768     411.4204
   1419.17603     672.4010     410.6391   1419.17603     672.4010     410.6391
   1419.16077     672.3318     411.1341   1419.16077     672.3318     411.1341
   1419.14551     673.9361     411.4492   1419.14551     673.9361     411.4492
   1419.13025     674.0585     410.6689   1419.13025     674.0585     410.6689
   1419.11499     675.1882     410.9072   1419.11499     675.1882     410.9072
   1419.09973     674.7902     410.9035   1419.09973     674.7902     410.9035
   1419.08447     675.5793     411.6752   1419.08447     675.5793     411.6752
   1419.06921     675.4067     411.6165   1419.06921     675.4067     411.6165
   1419.05396     676.6104     412.4118   1419.05396     676.6104     412.4118
   1419.03870     676.6240     411.5023   1419.03870     676.6240     411.5023
   1419.02344     678.1511     412.0703   1419.02344     678.1511     412.0703
   1419.00818     677.8707     411.6089   1419.00818     677.8707     411.6089
   1418.99292     678.9312     412.0141   1418.99292     678.9312     412.0141
   1418.97766     679.6492     412.9885   1418.97766     679.6492     412.9885
   1418.96240     681.3726     412.2228   1418.96240     681.3726     412.2228
   1418.94714     681.2096     412.7070   1418.94714     681.2096     412.7070
   1418.93188     681.6326     412.9066   1418.93188     681.6326     412.9066
   1418.91663     681.1464     412.8615   1418.91663     681.1464     412.8615
   1418.90137     681.9184     413.2814   1418.90137     681.9184     413.2814
   1418.88611     683.2916     414.1275   1418.88611     683.2916     414.1275
   1418.87085     683.7756     413.9036   1418.87085     683.7756     413.9036
   1418.85559     684.3923     413.7530   1418.85559     684.3923     413.7530
   1418.84033     684.8062     415.0205   1418.84033     684.8062     415.0205
   1418.82507     685.3840     414.9341   1418.82507     685.3840     414.9341
   1418.80981     686.1136     414.6121   1418.80981     686.1136     414.6121
   1418.79456     687.1748     415.3604   1418.79456     687.1748     415.3604
   1418.77930     688.2893     415.8020   1418.77930     688.2893     415.8020
   1418.76404     687.4893     415.6888   1418.76404     687.4893     415.6888
   1418.74878     687.3821     415.4244   1418.74878     687.3821     415.4244
   1418.73352     689.0703     416.1835   1418.73352     689.0703     416.1835
   1418.71826     690.1452     416.5917   1418.71826     690.1452     416.5917
   1418.70300     690.8632     417.4687   1418.70300     690.8632     417.4687
   1418.68774     690.8318     416.9005   1418.68774     690.8318     416.9005
   1418.67249     691.3882     417.3353   1418.67249     691.3882     417.3353
   1418.65723     692.5228     418.1285   1418.65723     692.5228     418.1285
   1418.64197     693.5111     418.0562   1418.64197     693.5111     418.0562
   1418.62671     694.0858     419.5029   1418.62671     694.0858     419.5029
   1418.61145     695.3796     419.6703   1418.61145     695.3796     419.6703
   1418.59619     695.3138     419.6077   1418.59619     695.3138     419.6077
   1418.58093     695.1317     420.3255   1418.58093     695.1317     420.3255
   1418.56567     696.7473     419.6906   1418.56567     696.7473     419.6906
   1418.55042     697.6068     420.5761   1418.55042     697.6068     420.5761
   1418.53516     697.5171     421.2953   1418.53516     697.5171     421.2953
   1418.51990     699.2679     422.1442   1418.51990     699.2679     422.1442
   1418.50464     699.5897     422.0184   1418.50464     699.5897     422.0184
   1418.48938     700.2240     422.2835   1418.48938     700.2240     422.2835
   1418.47412     700.7857     422.8358   1418.47412     700.7857     422.8358
   1418.45886     701.2344     423.0487   1418.45886     701.2344     423.0487
   1418.44360     704.0261     423.6541   1418.44360     704.0261     423.6541
   1418.42834     701.6924     424.4226   1418.42834     701.6924     424.4226
   1418.41309     703.6828     424.4919   1418.41309     703.6828     424.4919
   1418.39783     703.4388     424.9845   1418.39783     703.4388     424.9845
   1418.38257     704.8480     425.6852   1418.38257     704.8480     425.6852
   1418.36731     705.2684     425.9656   1418.36731     705.2684     425.9656
   1418.35205     706.4073     426.0424   1418.35205     706.4073     426.0424
   1418.33679     708.2065     426.7788   1418.33679     708.2065     426.7788
   1418.32153     708.2490     428.0296   1418.32153     708.2490     428.0296
   1418.30627     709.3343     428.4285   1418.30627     709.3343     428.4285
   1418.29102     710.4485     428.7140   1418.29102     710.4485     428.7140
   1418.27576     711.7776     429.1667   1418.27576     711.7776     429.1667
   1418.26050     711.3101     429.9504   1418.26050     711.3101     429.9504
   1418.24524     711.7256     430.6947   1418.24524     711.7256     430.6947
   1418.22998     712.8829     430.6633   1418.22998     712.8829     430.6633
   1418.21472     713.1335     431.7214   1418.21472     713.1335     431.7214
   1418.19946     714.0145     432.1319   1418.19946     714.0145     432.1319
   1418.18420     715.8892     432.2742   1418.18420     715.8892     432.2742
   1418.16895     716.6218     432.6035   1418.16895     716.6218     432.6035
   1418.15369     716.9262     433.3375   1418.15369     716.9262     433.3375
   1418.13843     718.6745     434.1525   1418.13843     718.6745     434.1525
   1418.12317     719.4663     434.3896   1418.12317     719.4663     434.3896
   1418.10791     718.3891     435.1349   1418.10791     718.3891     435.1349
   1418.09265     720.3341     435.7350   1418.09265     720.3341     435.7350
   1418.07739     721.6607     436.1818   1418.07739     721.6607     436.1818
   1418.06213     722.5551     437.3277   1418.06213     722.5551     437.3277
   1418.04688     723.5519     437.7294   1418.04688     723.5519     437.7294
   1418.03162     723.6669     437.8382   1418.03162     723.6669     437.8382
   1418.01636     725.6263     438.9522   1418.01636     725.6263     438.9522
   1418.00110     725.2090     438.9113   1418.00110     725.2090     438.9113
   1417.98584     726.4011     439.2320   1417.98584     726.4011     439.2320
   1417.97058     727.7339     440.4097   1417.97058     727.7339     440.4097
   1417.95532     729.4459     441.2487   1417.95532     729.4459     441.2487
   1417.94006     729.1493     441.2375   1417.94006     729.1493     441.2375
   1417.92480     729.7607     442.2202   1417.92480     729.7607     442.2202
   1417.90955     731.2352     443.1533   1417.90955     731.2352     443.1533
   1417.89429     733.1889     443.7822   1417.89429     733.1889     443.7822
   1417.87903     732.4792     443.9152   1417.87903     732.4792     443.9152
   1417.86377     732.9901     444.5067   1417.86377     732.9901     444.5067
   1417.84851     734.7774     445.7920   1417.84851     734.7774     445.7920
   1417.83325     735.2979     446.1277   1417.83325     735.2979     446.1277
   1417.81799     736.1242     446.2736   1417.81799     736.1242     446.2736
   1417.80273     737.3454     447.1828   1417.80273     737.3454     447.1828
   1417.78748     740.1429     448.6165   1417.78748     740.1429     448.6165
   1417.77222     738.9335     448.3638   1417.77222     738.9335     448.3638
   1417.75696     741.2482     450.1730   1417.75696     741.2482     450.1730
   1417.74170     740.4745     450.3930   1417.74170     740.4745     450.3930
   1417.72644     741.6055     451.2441   1417.72644     741.6055     451.2441
   1417.71118     743.3990     451.5269   1417.71118     743.3990     451.5269
   1417.69592     743.4973     452.0904   1417.69592     743.4973     452.0904
   1417.68066     744.5543     452.7932   1417.68066     744.5543     452.7932
   1417.66541     744.5516     453.2446   1417.66541     744.5516     453.2446
   1417.65015     747.5266     454.2099   1417.65015     747.5266     454.2099
   1417.63489     748.2467     455.1674   1417.63489     748.2467     455.1674
   1417.61963     749.0720     456.1065   1417.61963     749.0720     456.1065
   1417.60437     749.1861     455.9487   1417.60437     749.1861     455.9487
   1417.58911     750.7858     456.1440   1417.58911     750.7858     456.1440
   1417.57385     751.7777     456.7273   1417.57385     751.7777     456.7273
   1417.55859     752.6411     457.5941   1417.55859     752.6411     457.5941
   1417.54333     752.9102     459.3966   1417.54333     752.9102     459.3966
   1417.52808     754.8055     459.0609   1417.52808     754.8055     459.0609
   1417.51282     756.5304     459.8149   1417.51282     756.5304     459.8149
   1417.49756     756.0199     459.7719   1417.49756     756.0199     459.7719
   1417.48230     757.4203     461.4092   1417.48230     757.4203     461.4092
   1417.46704     757.1188     461.0653   1417.46704     757.1188     461.0653
   1417.45178     758.6562     462.7450   1417.45178     758.6562     462.7450
   1417.43652     759.8409     462.6577   1417.43652     759.8409     462.6577
   1417.42126     760.9025     462.8165   1417.42126     760.9025     462.8165
   1417.40601     761.6898     464.9813   1417.40601     761.6898     464.9813
   1417.39075     762.2531     463.9143   1417.39075     762.2531     463.9143
   1417.37549     764.0452     465.7034   1417.37549     764.0452     465.7034
   1417.36023     764.2011     465.9922   1417.36023     764.2011     465.9922
   1417.34497     765.8000     467.1609   1417.34497     765.8000     467.1609
   1417.32971     766.7537     467.6251   1417.32971     766.7537     467.6251
   1417.31445     767.5812     468.7524   1417.31445     767.5812     468.7524
   1417.29919     768.1987     468.5571   1417.29919     768.1987     468.5571
   1417.28394     768.5394     470.2251   1417.28394     768.5394     470.2251
   1417.26868     769.8279     470.5480   1417.26868     769.8279     470.5480
   1417.25342     770.7357     470.6597   1417.25342     770.7357     470.6597
   1417.23816     771.2678     471.2165   1417.23816     771.2678     471.2165
   1417.22290     774.9412     472.7569   1417.22290     774.9412     472.7569
   1417.20764     772.0248     472.7492   1417.20764     772.0248     472.7492
   1417.19238     774.6485     472.7034   1417.19238     774.6485     472.7034
   1417.17712     773.5818     474.1548   1417.17712     773.5818     474.1548
   1417.16187     775.7317     474.7332   1417.16187     775.7317     474.7332
   1417.14661     775.2130     474.7746   1417.14661     775.2130     474.7746
   1417.13135     776.8517     475.9698   1417.13135     776.8517     475.9698
   1417.11609     777.6376     475.5635   1417.11609     777.6376     475.5635
   1417.10083     777.1788     477.6142   1417.10083     777.1788     477.6142
   1417.08557     780.0882     476.9906   1417.08557     780.0882     476.9906
   1417.07031     779.7419     478.1580   1417.07031     779.7419     478.1580
   1417.05505     780.4546     478.1682   1417.05505     780.4546     478.1682
   1417.03979     782.2148     479.1176   1417.03979     782.2148     479.1176
   1417.02454     781.6774     479.3468   1417.02454     781.6774     479.3468
   1417.00928     782.9901     479.6447   1417.00928     782.9901     479.6447
   1416.99402     782.6647     480.8052   1416.99402     782.6647     480.8052
   1416.97876     784.4359     480.8582   1416.97876     784.4359     480.8582
   1416.96350     785.7027     481.6245   1416.96350     785.7027     481.6245
   1416.94824     785.2626     482.6049   1416.94824     785.2626     482.6049
   1416.93298     785.3922     482.8198   1416.93298     785.3922     482.8198
   1416.91772     786.7642     483.0413   1416.91772     786.7642     483.0413
   1416.90247     786.5549     483.5911   1416.90247     786.5549     483.5911
   1416.88721     787.9531     483.7399   1416.88721     787.9531     483.7399
   1416.87195     788.3347     484.3243   1416.87195     788.3347     484.3243
   1416.85669     788.9587     484.6269   1416.85669     788.9587     484.6269
   1416.84143     788.9686     485.6146   1416.84143     788.9686     485.6146
   1416.82617     788.8491     485.2465   1416.82617     788.8491     485.2465
   1416.81091     790.0976     486.5019   1416.81091     790.0976     486.5019
   1416.79565     790.0869     486.8040   1416.79565     790.0869     486.8040
   1416.78040     791.1874     487.2820   1416.78040     791.1874     487.2820
   1416.76514     792.5971     488.1206   1416.76514     792.5971     488.1206
   1416.74988     791.5425     487.0125   1416.74988     791.5425     487.0125
   1416.73462     792.5070     487.8464   1416.73462     792.5070     487.8464
   1416.71936     792.9653     488.5136   1416.71936     792.9653     488.5136
   1416.70410     792.6345     488.3182   1416.70410     792.6345     488.3182
   1416.68884     793.1921     488.1585   1416.68884     793.1921     488.1585
   1416.67358     794.3244     489.3240   1416.67358     794.3244     489.3240
   1416.65833     794.5296     489.5106   1416.65833     794.5296     489.5106
   1416.64307     794.5908     489.5860   1416.64307     794.5908     489.5860
   1416.62781     795.1591     490.6343   1416.62781     795.1591     490.6343
   1416.61255     794.8021     490.3502   1416.61255     794.8021     490.3502
   1416.59729     795.5251     490.0936   1416.59729     795.5251     490.0936
   1416.58203     795.5907     490.3504   1416.58203     795.5907     490.3504
   1416.56677     795.2462     491.0924   1416.56677     795.2462     491.0924
   1416.55151     795.8053     491.6894   1416.55151     795.8053     491.6894
   1416.53625     795.4945     491.4680   1416.53625     795.4945     491.4680
   1416.52100     797.2394     491.3976   1416.52100     797.2394     491.3976
   1416.50574     797.6583     492.3961   1416.50574     797.6583     492.3961
   1416.49048     795.6542     491.8858   1416.49048     795.6542     491.8858
   1416.47522     796.3030     492.6021   1416.47522     796.3030     492.6021
   1416.45996     796.4799     491.9960   1416.45996     796.4799     491.9960
   1416.44470     796.1915     492.1470   1416.44470     796.1915     492.1470
   1416.42944     796.0869     492.7016   1416.42944     796.0869     492.7016
   1416.41418     796.5668     491.7624   1416.41418     796.5668     491.7624
   1416.39893     795.4188     492.7046   1416.39893     795.4188     492.7046
   1416.38367     796.3372     492.3513   1416.38367     796.3372     492.3513
   1416.36841     796.4601     492.5291   1416.36841     796.4601     492.5291
   1416.35315     796.1838     493.1520   1416.35315     796.1838     493.1520
   1416.33789     795.7611     493.1637   1416.33789     795.7611     493.1637
   1416.32263     794.9924     492.5943   1416.32263     794.9924     492.5943
   1416.30737     794.5976     492.6171   1416.30737     794.5976     492.6171
   1416.29211     795.2043     493.0611   1416.29211     795.2043     493.0611
   1416.27686     794.4020     492.9421   1416.27686     794.4020     492.9421
   1416.26160     795.3384     492.5947   1416.26160     795.3384     492.5947
   1416.24634     794.8555     492.6306   1416.24634     794.8555     492.6306
   1416.23108     794.9988     492.8480   1416.23108     794.9988     492.8480
   1416.21582     794.5460     492.2903   1416.21582     794.5460     492.2903
   1416.20056     794.9855     492.5968   1416.20056     794.9855     492.5968
   1416.18530     793.0921     492.8902   1416.18530     793.0921     492.8902
   1416.17004     792.6476     492.4784   1416.17004     792.6476     492.4784
   1416.15479     792.7167     491.8931   1416.15479     792.7167     491.8931
   1416.13953     791.4863     492.3856   1416.13953     791.4863     492.3856
   1416.12427     792.7041     492.1689   1416.12427     792.7041     492.1689
   1416.10901     790.8417     492.0760   1416.10901     790.8417     492.0760
   1416.09375     790.9968     491.7198   1416.09375     790.9968     491.7198
   1416.07849     790.8781     491.0075   1416.07849     790.8781     491.0075
   1416.06323     788.4297     491.6026   1416.06323     788.4297     491.6026
   1416.04797     790.2612     490.8948   1416.04797     790.2612     490.8948
   1416.03271     789.6190     491.3920   1416.03271     789.6190     491.3920
   1416.01746     789.8542     491.2987   1416.01746     789.8542     491.2987
   1416.00220     788.5485     490.9312   1416.00220     788.5485     490.9312
   1415.98694     788.5094     489.7181   1415.98694     788.5094     489.7181
   1415.97168     787.9044     490.4162   1415.97168     787.9044     490.4162
   1415.95642     787.1330     490.1073   1415.95642     787.1330     490.1073
   1415.94116     786.0860     489.9055   1415.94116     786.0860     489.9055
   1415.92590     785.5958     489.5882   1415.92590     785.5958     489.5882
   1415.91064     786.4955     489.3562   1415.91064     786.4955     489.3562
   1415.89539     785.1752     490.0640   1415.89539     785.1752     490.0640
   1415.88013     783.2650     489.5189   1415.88013     783.2650     489.5189
   1415.86487     784.5364     489.7749   1415.86487     784.5364     489.7749
   1415.84961     782.2753     488.8917   1415.84961     782.2753     488.8917
   1415.83435     782.6291     489.2338   1415.83435     782.6291     489.2338
   1415.81909     781.7416     488.4722   1415.81909     781.7416     488.4722
   1415.80383     781.5759     488.5356   1415.80383     781.5759     488.5356
   1415.78857     781.3101     488.5208   1415.78857     781.3101     488.5208
   1415.77332     779.2834     488.2403   1415.77332     779.2834     488.2403
   1415.75806     778.3147     487.7106   1415.75806     778.3147     487.7106
   1415.74280     778.1433     487.7886   1415.74280     778.1433     487.7886
   1415.72754     777.1524     488.0869   1415.72754     777.1524     488.0869
   1415.71228     776.6168     486.9996   1415.71228     776.6168     486.9996
   1415.69702     776.3210     486.6769   1415.69702     776.3210     486.6769
   1415.68176     774.2214     487.1905   1415.68176     774.2214     487.1905
   1415.66650     773.8661     485.7921   1415.66650     773.8661     485.7921
   1415.65125     773.4438     486.0706   1415.65125     773.4438     486.0706
   1415.63599     773.9916     485.6769   1415.63599     773.9916     485.6769
   1415.62073     770.4837     484.9881   1415.62073     770.4837     484.9881
   1415.60547     771.1398     484.7000   1415.60547     771.1398     484.7000
   1415.59021     770.8223     484.9707   1415.59021     770.8223     484.9707
   1415.57495     770.2387     484.1581   1415.57495     770.2387     484.1581
   1415.55969     767.2272     484.2299   1415.55969     767.2272     484.2299
   1415.54443     767.6270     484.0538   1415.54443     767.6270     484.0538
   1415.52917     766.7290     483.7490   1415.52917     766.7290     483.7490
   1415.51392     767.2126     482.9452   1415.51392     767.2126     482.9452
   1415.49866     764.7230     482.9045   1415.49866     764.7230     482.9045
   1415.48340     764.9538     482.6450   1415.48340     764.9538     482.6450
   1415.46814     762.9011     482.4306   1415.46814     762.9011     482.4306
   1415.45288     762.2817     481.2890   1415.45288     762.2817     481.2890
   1415.43762     761.4141     481.6175   1415.43762     761.4141     481.6175
   1415.42236     760.5854     481.8959   1415.42236     760.5854     481.8959
   1415.40710     759.7526     481.4908   1415.40710     759.7526     481.4908
   1415.39185     757.5164     479.9034   1415.39185     757.5164     479.9034
   1415.37659     756.5645     479.5980   1415.37659     756.5645     479.5980
   1415.36133     755.5602     479.7672   1415.36133     755.5602     479.7672
   1415.34607     754.4128     479.0945   1415.34607     754.4128     479.0945
   1415.33081     753.8112     478.8249   1415.33081     753.8112     478.8249
   1415.31555     753.9084     478.0299   1415.31555     753.9084     478.0299
   1415.30029     752.0675     478.7313   1415.30029     752.0675     478.7313
   1415.28503     750.7642     478.6498   1415.28503     750.7642     478.6498
   1415.26978     748.2574     477.0563   1415.26978     748.2574     477.0563
   1415.25452     747.5939     477.1103   1415.25452     747.5939     477.1103
   1415.23926     745.7103     477.0681   1415.23926     745.7103     477.0681
   1415.22400     745.3411     475.6369   1415.22400     745.3411     475.6369
   1415.20874     744.2491     475.3450   1415.20874     744.2491     475.3450
   1415.19348     743.3475     475.0520   1415.19348     743.3475     475.0520
   1415.17822     741.1084     474.2598   1415.17822     741.1084     474.2598
   1415.16296     740.0256     475.0199   1415.16296     740.0256     475.0199
   1415.14771     738.1486     474.0958   1415.14771     738.1486     474.0958
   1415.13245     736.8577     472.8427   1415.13245     736.8577     472.8427
   1415.11719     735.7125     472.7330   1415.11719     735.7125     472.7330
   1415.10193     734.3440     472.7396   1415.10193     734.3440     472.7396
   1415.08667     733.0010     472.2497   1415.08667     733.0010     472.2497
   1415.07141     731.0382     470.8460   1415.07141     731.0382     470.8460
   1415.05615     730.1873     470.7188   1415.05615     730.1873     470.7188
   1415.04089     727.7026     469.9874   1415.04089     727.7026     469.9874
   1415.02563     727.6709     469.5336   1415.02563     727.6709     469.5336
   1415.01038     724.6481     469.1973   1415.01038     724.6481     469.1973
   1414.99512     723.2512     469.1006   1414.99512     723.2512     469.1006
   1414.97986     722.6663     468.3661   1414.97986     722.6663     468.3661
   1414.96460     719.8000     467.8965   1414.96460     719.8000     467.8965
   1414.94934     719.3863     466.7240   1414.94934     719.3863     466.7240
   1414.93408     717.3300     466.4918   1414.93408     717.3300     466.4918
   1414.91882     715.2864     465.8149   1414.91882     715.2864     465.8149
   1414.90356     713.8213     465.8179   1414.90356     713.8213     465.8179
   1414.88831     713.0563     464.9907   1414.88831     713.0563     464.9907
   1414.87305     709.9038     463.2611   1414.87305     709.9038     463.2611
   1414.85779     708.6742     463.3782   1414.85779     708.6742     463.3782
   1414.84253     706.9085     462.1440   1414.84253     706.9085     462.1440
   1414.82727     705.2411     461.5668   1414.82727     705.2411     461.5668
   1414.81201     702.8411     460.9517   1414.81201     702.8411     460.9517
   1414.79675     700.3736     460.4256   1414.79675     700.3736     460.4256
   1414.78149     699.3417     459.3842   1414.78149     699.3417     459.3842
   1414.76624     695.7772     459.2240   1414.76624     695.7772     459.2240
   1414.75098     695.0720     457.9956   1414.75098     695.0720     457.9956
   1414.73572     694.3984     456.8089   1414.73572     694.3984     456.8089
   1414.72046     691.2266     456.7190   1414.72046     691.2266     456.7190
   1414.70520     690.1452     455.9053   1414.70520     690.1452     455.9053
   1414.68994     687.8931     454.8929   1414.68994     687.8931     454.8929
   1414.67468     684.2455     454.5037   1414.67468     684.2455     454.5037
   1414.65942     683.2280     454.1001   1414.65942     683.2280     454.1001
   1414.64417     679.7227     452.9663   1414.64417     679.7227     452.9663
   1414.62891     677.5648     451.4815   1414.62891     677.5648     451.4815
   1414.61365     676.5011     451.5147   1414.61365     676.5011     451.5147
   1414.59839     673.7307     450.3554   1414.59839     673.7307     450.3554
   1414.58313     672.5801     448.8442   1414.58313     672.5801     448.8442
   1414.56787     670.0884     447.4999   1414.56787     670.0884     447.4999
   1414.55261     666.8340     447.1844   1414.55261     666.8340     447.1844
   1414.53735     665.1928     446.0305   1414.53735     665.1928     446.0305
   1414.52209     663.0997     445.4001   1414.52209     663.0997     445.4001
   1414.50684     660.4072     444.6552   1414.50684     660.4072     444.6552
   1414.49158     656.4482     443.0806   1414.49158     656.4482     443.0806
   1414.47632     655.2628     443.4605   1414.47632     655.2628     443.4605
   1414.46106     653.3492     442.0631   1414.46106     653.3492     442.0631
   1414.44580     650.4371     440.7507   1414.44580     650.4371     440.7507
   1414.43054     648.6129     439.9457   1414.43054     648.6129     439.9457
   1414.41528     645.4368     438.6990   1414.41528     645.4368     438.6990
   1414.40002     642.6863     437.3719   1414.40002     642.6863     437.3719
   1414.38477     641.7006     436.8549   1414.38477     641.7006     436.8549
   1414.36951     638.4938     435.1247   1414.36951     638.4938     435.1247
   1414.35425     636.4261     434.6316   1414.35425     636.4261     434.6316
   1414.33899     632.0675     433.1967   1414.33899     632.0675     433.1967
   1414.32373     630.5165     431.8513   1414.32373     630.5165     431.8513
   1414.30847     628.2827     431.6632   1414.30847     628.2827     431.6632
   1414.29321     624.5347     430.8338   1414.29321     624.5347     430.8338
   1414.27795     622.4114     429.3402   1414.27795     622.4114     429.3402
   1414.26270     619.8262     427.2720   1414.26270     619.8262     427.2720
   1414.24744     616.7462     426.2881   1414.24744     616.7462     426.2881
   1414.23218     615.3144     424.7154   1414.23218     615.3144     424.7154
   1414.21692     611.8922     423.6754   1414.21692     611.8922     423.6754
   1414.20166     608.6297     422.5112   1414.20166     608.6297     422.5112
   1414.18640     606.9144     421.1994   1414.18640     606.9144     421.1994
   1414.17114     603.5899     420.9868   1414.17114     603.5899     420.9868
   1414.15588     602.0472     418.3933   1414.15588     602.0472     418.3933
   1414.14062     597.1014     417.0856   1414.14062     597.1014     417.0856
   1414.12537     594.7721     416.2862   1414.12537     594.7721     416.2862
   1414.11011     592.0919     415.0543   1414.11011     592.0919     415.0543
   1414.09485     589.5338     414.0292   1414.09485     589.5338     414.0292
   1414.07959     586.4506     412.3649   1414.07959     586.4506     412.3649
   1414.06433     583.6367     411.3814   1414.06433     583.6367     411.3814
   1414.04907     580.9173     410.2688   1414.04907     580.9173     410.2688
   1414.03381     578.3251     408.7236   1414.03381     578.3251     408.7236
   1414.01855     575.3580     407.7036   1414.01855     575.3580     407.7036
   1414.00330     599.1776     415.6965   1414.00330     599.1776     415.6965
   1413.98804     571.6223     405.7190   1413.98804     571.6223     405.7190
   1413.97278     566.5346     403.3340   1413.97278     566.5346     403.3340
   1413.95752     563.1464     401.9701   1413.95752     563.1464     401.9701
   1413.94226     559.8906     400.5652   1413.94226     559.8906     400.5652
   1413.92700     556.8149     399.0155   1413.92700     556.8149     399.0155
   1413.91174     554.8903     397.8743   1413.91174     554.8903     397.8743
   1413.89648     551.4717     396.2818   1413.89648     551.4717     396.2818
   1413.88123     547.8052     394.8579   1413.88123     547.8052     394.8579
   1413.86597     545.8445     393.1154   1413.86597     545.8445     393.1154
   1413.85071     542.9481     391.6759   1413.85071     542.9481     391.6759
   1413.83545     539.3615     389.3499   1413.83545     539.3615     389.3499
   1413.82019     536.1790     388.8537   1413.82019     536.1790     388.8537
   1413.80493     532.7457     387.6007   1413.80493     532.7457     387.6007
   1413.78967     530.6725     385.4716   1413.78967     530.6725     385.4716
   1413.77441     526.4626     384.1947   1413.77441     526.4626     384.1947
   1413.75916     524.2705     382.5238   1413.75916     524.2705     382.5238
   1413.74390     522.1598     381.4330   1413.74390     522.1598     381.4330
   1413.72864     518.2260     379.6587   1413.72864     518.2260     379.6587
   1413.71338     514.6397     378.0290   1413.71338     514.6397     378.0290
   1413.69812     512.0649     376.6798   1413.69812     512.0649     376.6798
   1413.68286     508.9940     374.8248   1413.68286     508.9940     374.8248
   1413.66760     505.9212     373.5221   1413.66760     505.9212     373.5221
   1413.65234     502.9236     371.9921   1413.65234     502.9236     371.9921
   1413.63708     499.9997     370.5112   1413.63708     499.9997     370.5112
   1413.62183     496.9378     368.7515   1413.62183     496.9378     368.7515
   1413.60657     493.6313     367.5252   1413.60657     493.6313     367.5252
   1413.59131     490.9778     365.8220   1413.59131     490.9778     365.8220
   1413.57605     488.3330     364.2469   1413.57605     488.3330     364.2469
   1413.56079     484.5155     362.1826   1413.56079     484.5155     362.1826
   1413.54553     481.8569     360.6533   1413.54553     481.8569     360.6533
   1413.53027     478.7801     359.4472   1413.53027     478.7801     359.4472
   1413.51501     476.5835     357.2629   1413.51501     476.5835     357.2629
   1413.49976     472.6190     356.0706   1413.49976     472.6190     356.0706
   1413.48450     469.6107     354.7078   1413.48450     469.6107     354.7078
   1413.46924     467.2229     353.1657   1413.46924     467.2229     353.1657
   1413.45398     464.1641     351.3980   1413.45398     464.1641     351.3980
   1413.43872     461.3174     350.1313   1413.43872     461.3174     350.1313
   1413.42346     458.8770     348.3094   1413.42346     458.8770     348.3094
   1413.40820     455.1691     346.6871   1413.40820     455.1691     346.6871
   1413.39294     453.3973     345.3994   1413.39294     453.3973     345.3994
   1413.37769     450.2516     343.7339   1413.37769     450.2516     343.7339
   1413.36243     447.3498     342.1716   1413.36243     447.3498     342.1716
   1413.34717     444.8070     340.6021   1413.34717     444.8070     340.6021
   1413.33191     441.4878     339.1544   1413.33191     441.4878     339.1544
   1413.31665     439.1340     337.5857   1413.31665     439.1340     337.5857
   1413.30139     435.4716     336.1075   1413.30139     435.4716     336.1075
   1413.28613     433.5833     334.3397   1413.28613     433.5833     334.3397
   1413.27087     431.0351     333.1469   1413.27087     431.0351     333.1469
   1413.25562     429.0025     331.0282   1413.25562     429.0025     331.0282
   1413.24036     425.8569     329.8813   1413.24036     425.8569     329.8813
   1413.22510     422.6052     328.8051   1413.22510     422.6052     328.8051
   1413.20984     420.7778     326.5297   1413.20984     420.7778     326.5297
   1413.19458     418.1465     325.5198   1413.19458     418.1465     325.5198
   1413.17932     415.8382     323.7784   1413.17932     415.8382     323.7784
   1413.16406     413.2465     322.4133   1413.16406     413.2465     322.4133
   1413.14880     410.8372     320.9067   1413.14880     410.8372     320.9067
   1413.13354     408.6752     319.5016   1413.13354     408.6752     319.5016
   1413.11829     405.7274     318.4319   1413.11829     405.7274     318.4319
   1413.10303     402.7602     316.4716   1413.10303     402.7602     316.4716
   1413.08777     401.7122     315.5593   1413.08777     401.7122     315.5593
   1413.07251     399.4685     314.0571   1413.07251     399.4685     314.0571
   1413.05725     396.6763     312.4725   1413.05725     396.6763     312.4725
   1413.04199     394.0849     311.2959   1413.04199     394.0849     311.2959
   1413.02673     392.6129     309.8834   1413.02673     392.6129     309.8834
   1413.01147     389.5416     308.4012   1413.01147     389.5416     308.4012
   1412.99622     387.7870     307.8326   1412.99622     387.7870     307.8326
   1412.98096     385.8481     306.0140   1412.98096     385.8481     306.0140
   1412.96570     383.9559     304.9302   1412.96570     383.9559     304.9302
   1412.95044     382.0618     304.2098   1412.95044     382.0618     304.2098
   1412.93518     379.8082     302.4048   1412.93518     379.8082     302.4048
   1412.91992     377.3934     301.4289   1412.91992     377.3934     301.4289
   1412.90466     376.6417     300.3878   1412.90466     376.6417     300.3878
   1412.88940     374.0106     299.2711   1412.88940     374.0106     299.2711
   1412.87415     372.0558     297.9246   1412.87415     372.0558     297.9246
   1412.85889     370.4801     296.4227   1412.85889     370.4801     296.4227
   1412.84363     369.3089     295.9873   1412.84363     369.3089     295.9873
   1412.82837     367.2328     295.2644   1412.82837     367.2328     295.2644
   1412.81311     365.3906     293.4427   1412.81311     365.3906     293.4427
   1412.79785     363.4440     292.6771   1412.79785     363.4440     292.6771
   1412.78259     362.3982     291.8080   1412.78259     362.3982     291.8080
   1412.76733     361.7832     291.0231   1412.76733     361.7832     291.0231
   1412.75208     359.5536     290.0670   1412.75208     359.5536     290.0670
   1412.73682     358.0678     289.5219   1412.73682     358.0678     289.5219
   1412.72156     356.9487     288.1410   1412.72156     356.9487     288.1410
   1412.70630     355.9336     287.5556   1412.70630     355.9336     287.5556
   1412.69104     354.2542     286.6481   1412.69104     354.2542     286.6481
   1412.67578     353.0224     286.0963   1412.67578     353.0224     286.0963
   1412.66052     352.5385     285.3229   1412.66052     352.5385     285.3229
   1412.64526     350.4688     284.3715   1412.64526     350.4688     284.3715
   1412.63000     349.7121     284.1187   1412.63000     349.7121     284.1187
   1412.61475     348.9178     283.9995   1412.61475     348.9178     283.9995
   1412.59949     347.7107     282.6331   1412.59949     347.7107     282.6331
   1412.58423     347.1854     282.3052   1412.58423     347.1854     282.3052
   1412.56897     345.9925     281.6775   1412.56897     345.9925     281.6775
   1412.55371     345.7226     281.7519   1412.55371     345.7226     281.7519
   1412.53845     344.4407     280.6946   1412.53845     344.4407     280.6946
   1412.52319     344.1611     280.5494   1412.52319     344.1611     280.5494
   1412.50793     343.8578     280.4280   1412.50793     343.8578     280.4280
   1412.49268     342.9154     280.1848   1412.49268     342.9154     280.1848
   1412.47742     342.3834     279.5686   1412.47742     342.3834     279.5686
   1412.46216     342.2664     279.7274   1412.46216     342.2664     279.7274
   1412.44690     341.9095     279.3815   1412.44690     341.9095     279.3815
   1412.43164     341.0850     279.1379   1412.43164     341.0850     279.1379
   1412.41638     340.3865     279.1828   1412.41638     340.3865     279.1828
   1412.40112     340.9480     278.8051   1412.40112     340.9480     278.8051
   1412.38586     340.8641     279.0691   1412.38586     340.8641     279.0691
   1412.37061     339.6222     278.9581   1412.37061     339.6222     278.9581
   1412.35535     340.2504     278.9538   1412.35535     340.2504     278.9538
   1412.34009     340.0505     278.8997   1412.34009     340.0505     278.8997
   1412.32483     339.9670     279.1424   1412.32483     339.9670     279.1424
   1412.30957     340.1862     279.2799   1412.30957     340.1862     279.2799
   1412.29431     340.2975     279.5754   1412.29431     340.2975     279.5754
   1412.27905     340.6277     279.6743   1412.27905     340.6277     279.6743
   1412.26379     340.5483     280.1880   1412.26379     340.5483     280.1880
   1412.24854     340.6833     281.0116   1412.24854     340.6833     281.0116
   1412.23328     341.3129     280.7376   1412.23328     341.3129     280.7376
   1412.21802     341.2950     281.1382   1412.21802     341.2950     281.1382
   1412.20276     342.2377     281.8399   1412.20276     342.2377     281.8399