#     FILENAME=!Skynet_57528_lach-hhg-127_20422_20951.cyb.fits
#     BASENAME=Skynet_57528_lach-hhg-127_20422_20951
#     SRC_NAME=lach-hhg-127
#     OBSERVER=hhgmadison16_9500
#     DATE_OBS=2016-05-20T16:51:31.500
#        OBSID=20422
#      SCANNUM=20951
#          MJD=57528.7035
#          UTC=60780
#     SCANTYPE=track
#     DATAMODE=HIRES
#     TUNEFREQ=1420.0000
# Actual_FREQ1=1420.0000
# Actual_FREQ2=1420.0000
#    LO1Tuning=6870.000
#     RFFILTER=1355_1435
#        OBSBW=-15.6250
#        NCHAN=1024 
#        FOCUS=37.0709
#           RA=01:26:53.41
#          DEC=62:35:23.91
#      RA(hrs)=1.448200
#     DEC(deg)=62.590000
#    AZIM(deg)=332.482
#    ELEV(deg)=59.689
#     IFattens=10.00, 9.00
#      WARNING=None
#    TCAL_XL1=7.9635
#    TCAL_YR1=9.1340
#    TCAL_XL2=7.9635
#    TCAL_YR2=9.1340
#     TRX_XL1=11.7060
#     TRX_YR1=11.7060
#     TRX_XL2=11.7060
#     TRX_YR2=11.7060
#        TAVE=1.0000
#Freq1(MHz)          XL1          YR1  Freq2(MHz)          XL2          YR2 

   1427.81250     378.8603     283.4424   1427.81250     378.8603     283.4424
   1427.79724     379.1654     284.4912   1427.79724     379.1654     284.4912
   1427.78198     380.2621     285.5124   1427.78198     380.2621     285.5124
   1427.76672     380.8002     286.7300   1427.76672     380.8002     286.7300
   1427.75146     381.7646     287.3721   1427.75146     381.7646     287.3721
   1427.73621     382.5944     288.4465   1427.73621     382.5944     288.4465
   1427.72095     383.8926     289.4016   1427.72095     383.8926     289.4016
   1427.70569     384.4951     290.0177   1427.70569     384.4951     290.0177
   1427.69043     385.3180     292.0899   1427.69043     385.3180     292.0899
   1427.67517     386.6236     292.9780   1427.67517     386.6236     292.9780
   1427.65991     387.4973     294.1519   1427.65991     387.4973     294.1519
   1427.64465     388.8125     294.9712   1427.64465     388.8125     294.9712
   1427.62939     390.4492     296.4544   1427.62939     390.4492     296.4544
   1427.61414     391.2501     297.9388   1427.61414     391.2501     297.9388
   1427.59888     392.5609     298.8667   1427.59888     392.5609     298.8667
   1427.58362     394.5181     300.6395   1427.58362     394.5181     300.6395
   1427.56836     395.6591     301.7054   1427.56836     395.6591     301.7054
   1427.55310     397.4120     303.6971   1427.55310     397.4120     303.6971
   1427.53784     399.1062     304.8811   1427.53784     399.1062     304.8811
   1427.52258     400.6035     306.9450   1427.52258     400.6035     306.9450
   1427.50732     402.3579     308.4719   1427.50732     402.3579     308.4719
   1427.49207     404.7881     309.8072   1427.49207     404.7881     309.8072
   1427.47681     405.7211     311.8040   1427.47681     405.7211     311.8040
   1427.46155     408.5547     313.2816   1427.46155     408.5547     313.2816
   1427.44629     409.5132     314.8337   1427.44629     409.5132     314.8337
   1427.43103     411.4291     315.9824   1427.43103     411.4291     315.9824
   1427.41577     414.0715     318.5422   1427.41577     414.0715     318.5422
   1427.40051     415.5691     320.2939   1427.40051     415.5691     320.2939
   1427.38525     418.0113     322.3000   1427.38525     418.0113     322.3000
   1427.37000     420.5102     324.1906   1427.37000     420.5102     324.1906
   1427.35474     421.5619     325.8186   1427.35474     421.5619     325.8186
   1427.33948     424.0569     328.5156   1427.33948     424.0569     328.5156
   1427.32422     425.9817     329.7889   1427.32422     425.9817     329.7889
   1427.30896     428.5837     331.8117   1427.30896     428.5837     331.8117
   1427.29370     430.8431     334.3982   1427.29370     430.8431     334.3982
   1427.27844     433.5822     335.9452   1427.27844     433.5822     335.9452
   1427.26318     436.0089     338.1613   1427.26318     436.0089     338.1613
   1427.24792     437.9671     340.5781   1427.24792     437.9671     340.5781
   1427.23267     440.5316     342.4882   1427.23267     440.5316     342.4882
   1427.21741     442.9596     344.0526   1427.21741     442.9596     344.0526
   1427.20215     445.8716     346.4989   1427.20215     445.8716     346.4989
   1427.18689     448.8646     349.2081   1427.18689     448.8646     349.2081
   1427.17163     450.8471     351.2343   1427.17163     450.8471     351.2343
   1427.15637     453.2523     353.2989   1427.15637     453.2523     353.2989
   1427.14111     456.5162     355.7439   1427.14111     456.5162     355.7439
   1427.12585     459.6749     358.6095   1427.12585     459.6749     358.6095
   1427.11060     461.5419     360.2808   1427.11060     461.5419     360.2808
   1427.09534     464.6544     363.0348   1427.09534     464.6544     363.0348
   1427.08008     468.1133     364.9488   1427.08008     468.1133     364.9488
   1427.06482     471.0052     367.5141   1427.06482     471.0052     367.5141
   1427.04956     473.4713     370.4323   1427.04956     473.4713     370.4323
   1427.03430     475.8713     372.2506   1427.03430     475.8713     372.2506
   1427.01904     478.9977     373.9354   1427.01904     478.9977     373.9354
   1427.00378     481.8646     377.5451   1427.00378     481.8646     377.5451
   1426.98853     484.7822     379.7869   1426.98853     484.7822     379.7869
   1426.97327     488.4217     382.7333   1426.97327     488.4217     382.7333
   1426.95801     490.5305     384.2461   1426.95801     490.5305     384.2461
   1426.94275     494.2088     387.5241   1426.94275     494.2088     387.5241
   1426.92749     496.2495     390.0459   1426.92749     496.2495     390.0459
   1426.91223     500.0387     392.5167   1426.91223     500.0387     392.5167
   1426.89697     503.8452     394.4933   1426.89697     503.8452     394.4933
   1426.88171     506.6738     397.2243   1426.88171     506.6738     397.2243
   1426.86646     509.6966     400.3132   1426.86646     509.6966     400.3132
   1426.85120     512.5591     402.0853   1426.85120     512.5591     402.0853
   1426.83594     515.9471     405.1936   1426.83594     515.9471     405.1936
   1426.82068     518.4110     407.2909   1426.82068     518.4110     407.2909
   1426.80542     522.0085     409.9577   1426.80542     522.0085     409.9577
   1426.79016     525.0976     412.5048   1426.79016     525.0976     412.5048
   1426.77490     528.3118     415.7368   1426.77490     528.3118     415.7368
   1426.75964     531.1776     417.6984   1426.75964     531.1776     417.6984
   1426.74438     534.7374     421.1934   1426.74438     534.7374     421.1934
   1426.72913     538.1005     422.7637   1426.72913     538.1005     422.7637
   1426.71387     541.1525     425.6063   1426.71387     541.1525     425.6063
   1426.69861     544.8649     428.2449   1426.69861     544.8649     428.2449
   1426.68335     546.9833     431.5827   1426.68335     546.9833     431.5827
   1426.66809     550.6918     433.7814   1426.66809     550.6918     433.7814
   1426.65283     554.5620     435.9799   1426.65283     554.5620     435.9799
   1426.63757     557.8855     438.5041   1426.63757     557.8855     438.5041
   1426.62231     564.5173     444.6869   1426.62231     564.5173     444.6869
   1426.60706     564.5406     445.2606   1426.60706     564.5406     445.2606
   1426.59180     568.4183     446.5314   1426.59180     568.4183     446.5314
   1426.57654     571.1591     448.9760   1426.57654     571.1591     448.9760
   1426.56128     573.1459     451.3766   1426.56128     573.1459     451.3766
   1426.54602     575.9489     453.8904   1426.54602     575.9489     453.8904
   1426.53076     579.8220     455.9016   1426.53076     579.8220     455.9016
   1426.51550     583.7017     459.1763   1426.51550     583.7017     459.1763
   1426.50024     586.5394     461.2390   1426.50024     586.5394     461.2390
   1426.48499     588.4506     463.8603   1426.48499     588.4506     463.8603
   1426.46973     592.7776     466.9665   1426.46973     592.7776     466.9665
   1426.45447     596.4196     470.0114   1426.45447     596.4196     470.0114
   1426.43921     598.9660     470.9705   1426.43921     598.9660     470.9705
   1426.42395     602.0040     473.7809   1426.42395     602.0040     473.7809
   1426.40869     604.2777     476.5109   1426.40869     604.2777     476.5109
   1426.39343     607.8326     478.7285   1426.39343     607.8326     478.7285
   1426.37817     610.9731     481.8467   1426.37817     610.9731     481.8467
   1426.36292     615.0930     484.2908   1426.36292     615.0930     484.2908
   1426.34766     617.6041     486.7504   1426.34766     617.6041     486.7504
   1426.33240     619.4253     488.4496   1426.33240     619.4253     488.4496
   1426.31714     623.4179     491.0885   1426.31714     623.4179     491.0885
   1426.30188     626.6667     493.3223   1426.30188     626.6667     493.3223
   1426.28662     629.3586     495.7307   1426.28662     629.3586     495.7307
   1426.27136     633.1391     498.8604   1426.27136     633.1391     498.8604
   1426.25610     635.1491     500.2906   1426.25610     635.1491     500.2906
   1426.24084     638.8904     503.2520   1426.24084     638.8904     503.2520
   1426.22559     641.4620     505.4698   1426.22559     641.4620     505.4698
   1426.21033     644.8193     508.1757   1426.21033     644.8193     508.1757
   1426.19507     646.3913     510.2838   1426.19507     646.3913     510.2838
   1426.17981     649.0491     513.3694   1426.17981     649.0491     513.3694
   1426.16455     652.6791     514.0358   1426.16455     652.6791     514.0358
   1426.14929     654.9933     515.9475   1426.14929     654.9933     515.9475
   1426.13403     658.8556     519.2505   1426.13403     658.8556     519.2505
   1426.11877     660.7213     521.0165   1426.11877     660.7213     521.0165
   1426.10352     663.3784     523.7503   1426.10352     663.3784     523.7503
   1426.08826     665.8004     524.5986   1426.08826     665.8004     524.5986
   1426.07300     669.2354     527.6505   1426.07300     669.2354     527.6505
   1426.05774     671.4786     529.1779   1426.05774     671.4786     529.1779
   1426.04248     674.2020     531.6705   1426.04248     674.2020     531.6705
   1426.02722     676.9167     534.1558   1426.02722     676.9167     534.1558
   1426.01196     678.5094     535.4237   1426.01196     678.5094     535.4237
   1425.99670     682.2682     537.4809   1425.99670     682.2682     537.4809
   1425.98145     683.7834     540.4223   1425.98145     683.7834     540.4223
   1425.96619     686.4346     541.7963   1425.96619     686.4346     541.7963
   1425.95093     689.1946     543.2383   1425.95093     689.1946     543.2383
   1425.93567     690.9214     545.5552   1425.93567     690.9214     545.5552
   1425.92041     693.0969     547.7947   1425.92041     693.0969     547.7947
   1425.90515     696.6802     549.4818   1425.90515     696.6802     549.4818
   1425.88989     698.4933     551.3085   1425.88989     698.4933     551.3085
   1425.87463     701.4711     553.2382   1425.87463     701.4711     553.2382
   1425.85938     703.1204     555.3144   1425.85938     703.1204     555.3144
   1425.84412     705.8636     556.1268   1425.84412     705.8636     556.1268
   1425.82886     706.9437     557.6921   1425.82886     706.9437     557.6921
   1425.81360     709.7855     561.2525   1425.81360     709.7855     561.2525
   1425.79834     711.9834     562.5538   1425.79834     711.9834     562.5538
   1425.78308     714.4850     563.6186   1425.78308     714.4850     563.6186
   1425.76782     715.1223     565.4700   1425.76782     715.1223     565.4700
   1425.75256     718.4522     567.1143   1425.75256     718.4522     567.1143
   1425.73730     718.6472     569.7481   1425.73730     718.6472     569.7481
   1425.72205     722.2461     570.7233   1425.72205     722.2461     570.7233
   1425.70679     723.2784     572.3026   1425.70679     723.2784     572.3026
   1425.69153     724.7614     573.7772   1425.69153     724.7614     573.7772
   1425.67627     727.0668     575.5026   1425.67627     727.0668     575.5026
   1425.66101     730.1857     577.3329   1425.66101     730.1857     577.3329
   1425.64575     730.2828     577.8885   1425.64575     730.2828     577.8885
   1425.63049     733.0410     579.8889   1425.63049     733.0410     579.8889
   1425.61523     733.6501     581.7682   1425.61523     733.6501     581.7682
   1425.59998     735.2416     582.4052   1425.59998     735.2416     582.4052
   1425.58472     737.6390     583.9614   1425.58472     737.6390     583.9614
   1425.56946     739.4472     586.6355   1425.56946     739.4472     586.6355
   1425.55420     740.8448     587.3669   1425.55420     740.8448     587.3669
   1425.53894     742.3792     588.5955   1425.53894     742.3792     588.5955
   1425.52368     743.7361     589.6863   1425.52368     743.7361     589.6863
   1425.50842     744.8279     590.5930   1425.50842     744.8279     590.5930
   1425.49316     746.7461     592.6261   1425.49316     746.7461     592.6261
   1425.47791     747.0498     595.2006   1425.47791     747.0498     595.2006
   1425.46265     750.7607     595.3227   1425.46265     750.7607     595.3227
   1425.44739     750.3429     597.6867   1425.44739     750.3429     597.6867
   1425.43213     752.0406     597.5121   1425.43213     752.0406     597.5121
   1425.41687     754.4482     599.9751   1425.41687     754.4482     599.9751
   1425.40161     754.2568     601.9161   1425.40161     754.2568     601.9161
   1425.38635     756.1436     601.8062   1425.38635     756.1436     601.8062
   1425.37109     756.1638     602.5699   1425.37109     756.1638     602.5699
   1425.35583     758.1434     604.4025   1425.35583     758.1434     604.4025
   1425.34058     758.1704     605.9287   1425.34058     758.1704     605.9287
   1425.32532     759.7621     605.7692   1425.32532     759.7621     605.7692
   1425.31006     759.5160     606.4518   1425.31006     759.5160     606.4518
   1425.29480     763.9266     609.1428   1425.29480     763.9266     609.1428
   1425.27954     764.3881     609.7072   1425.27954     764.3881     609.7072
   1425.26428     763.3749     610.5220   1425.26428     763.3749     610.5220
   1425.24902     765.0257     611.1547   1425.24902     765.0257     611.1547
   1425.23376     766.4667     613.2579   1425.23376     766.4667     613.2579
   1425.21851     766.4001     613.8730   1425.21851     766.4001     613.8730
   1425.20325     766.6266     614.6577   1425.20325     766.6266     614.6577
   1425.18799     767.7208     615.4521   1425.18799     767.7208     615.4521
   1425.17273     767.4374     615.8304   1425.17273     767.4374     615.8304
   1425.15747     769.9984     617.1738   1425.15747     769.9984     617.1738
   1425.14221     769.7173     618.5670   1425.14221     769.7173     618.5670
   1425.12695     771.6452     619.1752   1425.12695     771.6452     619.1752
   1425.11169     771.8289     619.5346   1425.11169     771.8289     619.5346
   1425.09644     770.5203     620.3698   1425.09644     770.5203     620.3698
   1425.08118     773.4688     621.6293   1425.08118     773.4688     621.6293
   1425.06592     774.2155     622.9759   1425.06592     774.2155     622.9759
   1425.05066     774.7436     623.8633   1425.05066     774.7436     623.8633
   1425.03540     775.3932     624.2758   1425.03540     775.3932     624.2758
   1425.02014     774.9243     624.8831   1425.02014     774.9243     624.8831
   1425.00488     777.6042     625.6440   1425.00488     777.6042     625.6440
   1424.98962     775.4468     627.1248   1424.98962     775.4468     627.1248
   1424.97437     775.9167     626.1644   1424.97437     775.9167     626.1644
   1424.95911     775.6270     627.6324   1424.95911     775.6270     627.6324
   1424.94385     777.7517     628.2623   1424.94385     777.7517     628.2623
   1424.92859     778.2795     629.3244   1424.92859     778.2795     629.3244
   1424.91333     778.2346     629.0599   1424.91333     778.2346     629.0599
   1424.89807     778.6627     630.0884   1424.89807     778.6627     630.0884
   1424.88281     779.2286     630.5140   1424.88281     779.2286     630.5140
   1424.86755     777.8800     631.1269   1424.86755     777.8800     631.1269
   1424.85229     779.7382     632.9463   1424.85229     779.7382     632.9463
   1424.83704     778.3591     632.3870   1424.83704     778.3591     632.3870
   1424.82178     779.6192     632.1154   1424.82178     779.6192     632.1154
   1424.80652     778.9996     634.2098   1424.80652     778.9996     634.2098
   1424.79126     780.0161     634.2077   1424.79126     780.0161     634.2077
   1424.77600     780.5101     635.4188   1424.77600     780.5101     635.4188
   1424.76074     780.2844     634.1397   1424.76074     780.2844     634.1397
   1424.74548     780.4995     635.5436   1424.74548     780.4995     635.5436
   1424.73022     781.1663     635.9823   1424.73022     781.1663     635.9823
   1424.71497     780.3474     637.1640   1424.71497     780.3474     637.1640
   1424.69971     781.5073     636.7971   1424.69971     781.5073     636.7971
   1424.68445     780.7584     636.7271   1424.68445     780.7584     636.7271
   1424.66919     779.9286     637.5343   1424.66919     779.9286     637.5343
   1424.65393     779.4858     638.2877   1424.65393     779.4858     638.2877
   1424.63867     780.1178     637.3427   1424.63867     780.1178     637.3427
   1424.62341     780.2579     638.4850   1424.62341     780.2579     638.4850
   1424.60815     780.7979     639.2435   1424.60815     780.7979     639.2435
   1424.59290     780.3792     640.5202   1424.59290     780.3792     640.5202
   1424.57764     779.7394     638.7837   1424.57764     779.7394     638.7837
   1424.56238     779.7066     639.9848   1424.56238     779.7066     639.9848
   1424.54712     780.8913     640.0290   1424.54712     780.8913     640.0290
   1424.53186     779.4639     640.1993   1424.53186     779.4639     640.1993
   1424.51660     779.2333     639.9611   1424.51660     779.2333     639.9611
   1424.50134     779.8448     640.7672   1424.50134     779.8448     640.7672
   1424.48608     780.3229     640.9341   1424.48608     780.3229     640.9341
   1424.47083     779.1892     641.0320   1424.47083     779.1892     641.0320
   1424.45557     778.4714     641.0452   1424.45557     778.4714     641.0452
   1424.44031     779.9749     640.9487   1424.44031     779.9749     640.9487
   1424.42505     779.2695     641.4364   1424.42505     779.2695     641.4364
   1424.40979     778.5178     641.8427   1424.40979     778.5178     641.8427
   1424.39453     778.1538     641.2438   1424.39453     778.1538     641.2438
   1424.37927     779.3578     641.9661   1424.37927     779.3578     641.9661
   1424.36401     777.3943     641.4598   1424.36401     777.3943     641.4598
   1424.34875     778.1078     642.9505   1424.34875     778.1078     642.9505
   1424.33350     777.2196     641.6212   1424.33350     777.2196     641.6212
   1424.31824     777.1672     642.2692   1424.31824     777.1672     642.2692
   1424.30298     775.5463     641.7725   1424.30298     775.5463     641.7725
   1424.28772     775.6732     642.7088   1424.28772     775.6732     642.7088
   1424.27246     776.3198     642.4338   1424.27246     776.3198     642.4338
   1424.25720     776.6386     642.8101   1424.25720     776.6386     642.8101
   1424.24194     775.3472     643.0696   1424.24194     775.3472     643.0696
   1424.22668     774.9930     642.0727   1424.22668     774.9930     642.0727
   1424.21143     775.4231     642.5077   1424.21143     775.4231     642.5077
   1424.19617     774.1970     642.4283   1424.19617     774.1970     642.4283
   1424.18091     773.1537     642.0735   1424.18091     773.1537     642.0735
   1424.16565     773.9984     642.2401   1424.16565     773.9984     642.2401
   1424.15039     773.1203     642.4477   1424.15039     773.1203     642.4477
   1424.13513     772.1608     641.1461   1424.13513     772.1608     641.1461
   1424.11987     771.7971     641.3778   1424.11987     771.7971     641.3778
   1424.10461     771.9042     642.6221   1424.10461     771.9042     642.6221
   1424.08936     771.3839     642.3890   1424.08936     771.3839     642.3890
   1424.07410     770.9069     642.3205   1424.07410     770.9069     642.3205
   1424.05884     769.7368     641.2609   1424.05884     769.7368     641.2609
   1424.04358     769.6320     641.7123   1424.04358     769.6320     641.7123
   1424.02832     769.3919     641.1708   1424.02832     769.3919     641.1708
   1424.01306     768.7617     641.6724   1424.01306     768.7617     641.6724
   1423.99780     768.2787     639.8693   1423.99780     768.2787     639.8693
   1423.98254     768.3116     640.4586   1423.98254     768.3116     640.4586
   1423.96729     768.0742     640.8013   1423.96729     768.0742     640.8013
   1423.95203     767.2693     640.2628   1423.95203     767.2693     640.2628
   1423.93677     767.7437     641.5146   1423.93677     767.7437     641.5146
   1423.92151     765.8943     640.5324   1423.92151     765.8943     640.5324
   1423.90625     766.0212     639.0259   1423.90625     766.0212     639.0259
   1423.89099     767.1841     639.6133   1423.89099     767.1841     639.6133
   1423.87573     766.1104     638.9333   1423.87573     766.1104     638.9333
   1423.86047     763.7213     638.4169   1423.86047     763.7213     638.4169
   1423.84521     764.8647     637.8809   1423.84521     764.8647     637.8809
   1423.82996     763.2444     637.4014   1423.82996     763.2444     637.4014
   1423.81470     763.2209     638.5369   1423.81470     763.2209     638.5369
   1423.79944     763.0837     637.3593   1423.79944     763.0837     637.3593
   1423.78418     762.3501     636.9960   1423.78418     762.3501     636.9960
   1423.76892     761.7983     637.7241   1423.76892     761.7983     637.7241
   1423.75366     761.1534     636.9922   1423.75366     761.1534     636.9922
   1423.73840     761.3015     637.0178   1423.73840     761.3015     637.0178
   1423.72314     761.2393     636.2198   1423.72314     761.2393     636.2198
   1423.70789     760.7902     636.2592   1423.70789     760.7902     636.2592
   1423.69263     759.5107     636.1147   1423.69263     759.5107     636.1147
   1423.67737     759.8687     635.6207   1423.67737     759.8687     635.6207
   1423.66211     759.5123     636.3208   1423.66211     759.5123     636.3208
   1423.64685     758.8279     634.2312   1423.64685     758.8279     634.2312
   1423.63159     758.0650     633.6951   1423.63159     758.0650     633.6951
   1423.61633     757.0845     633.9127   1423.61633     757.0845     633.9127
   1423.60107     757.7089     632.3564   1423.60107     757.7089     632.3564
   1423.58582     755.6019     632.6948   1423.58582     755.6019     632.6948
   1423.57056     756.8718     632.9763   1423.57056     756.8718     632.9763
   1423.55530     755.7897     631.8069   1423.55530     755.7897     631.8069
   1423.54004     756.4870     632.0687   1423.54004     756.4870     632.0687
   1423.52478     755.4946     630.9232   1423.52478     755.4946     630.9232
   1423.50952     754.5349     630.3705   1423.50952     754.5349     630.3705
   1423.49426     753.8362     630.7839   1423.49426     753.8362     630.7839
   1423.47900     752.7669     628.7440   1423.47900     752.7669     628.7440
   1423.46375     753.2548     629.4854   1423.46375     753.2548     629.4854
   1423.44849     751.9437     628.7212   1423.44849     751.9437     628.7212
   1423.43323     751.0923     628.9532   1423.43323     751.0923     628.9532
   1423.41797     752.3404     627.6583   1423.41797     752.3404     627.6583
   1423.40271     752.1558     626.8511   1423.40271     752.1558     626.8511
   1423.38745     751.5816     626.1851   1423.38745     751.5816     626.1851
   1423.37219     750.4769     626.4022   1423.37219     750.4769     626.4022
   1423.35693     750.6147     626.7241   1423.35693     750.6147     626.7241
   1423.34167     751.5113     626.1248   1423.34167     751.5113     626.1248
   1423.32642     748.6540     624.8593   1423.32642     748.6540     624.8593
   1423.31116     747.7316     624.1263   1423.31116     747.7316     624.1263
   1423.29590     748.6685     623.7478   1423.29590     748.6685     623.7478
   1423.28064     747.5673     622.9230   1423.28064     747.5673     622.9230
   1423.26538     747.9056     622.7334   1423.26538     747.9056     622.7334
   1423.25012     747.4972     621.5521   1423.25012     747.4972     621.5521
   1423.23486     747.3612     620.8968   1423.23486     747.3612     620.8968
   1423.21960     747.0630     621.2143   1423.21960     747.0630     621.2143
   1423.20435     747.5456     620.9947   1423.20435     747.5456     620.9947
   1423.18909     744.9867     618.5424   1423.18909     744.9867     618.5424
   1423.17383     744.7614     618.9608   1423.17383     744.7614     618.9608
   1423.15857     744.7975     618.5537   1423.15857     744.7975     618.5537
   1423.14331     744.4982     617.8443   1423.14331     744.4982     617.8443
   1423.12805     743.5720     617.9183   1423.12805     743.5720     617.9183
   1423.11279     744.2420     617.4245   1423.11279     744.2420     617.4245
   1423.09753     743.5267     616.2262   1423.09753     743.5267     616.2262
   1423.08228     743.0681     616.2338   1423.08228     743.0681     616.2338
   1423.06702     742.1653     614.2289   1423.06702     742.1653     614.2289
   1423.05176     742.6111     613.5897   1423.05176     742.6111     613.5897
   1423.03650     741.9061     613.2769   1423.03650     741.9061     613.2769
   1423.02124     741.2463     612.9854   1423.02124     741.2463     612.9854
   1423.00598     740.7988     613.0131   1423.00598     740.7988     613.0131
   1422.99072     740.7675     610.8784   1422.99072     740.7675     610.8784
   1422.97546     739.8166     610.2422   1422.97546     739.8166     610.2422
   1422.96021     740.3481     609.0266   1422.96021     740.3481     609.0266
   1422.94495     739.5000     609.3209   1422.94495     739.5000     609.3209
   1422.92969     740.1957     608.1071   1422.92969     740.1957     608.1071
   1422.91443     737.9153     607.9061   1422.91443     737.9153     607.9061
   1422.89917     739.5683     606.8484   1422.89917     739.5683     606.8484
   1422.88391     737.9034     606.7230   1422.88391     737.9034     606.7230
   1422.86865     737.2399     605.3268   1422.86865     737.2399     605.3268
   1422.85339     737.1756     604.6019   1422.85339     737.1756     604.6019
   1422.83813     737.4753     603.9310   1422.83813     737.4753     603.9310
   1422.82288     736.9714     602.5598   1422.82288     736.9714     602.5598
   1422.80762     736.8538     602.8002   1422.80762     736.8538     602.8002
   1422.79236     735.6290     602.0668   1422.79236     735.6290     602.0668
   1422.77710     736.6844     600.6749   1422.77710     736.6844     600.6749
   1422.76184     735.4697     600.3474   1422.76184     735.4697     600.3474
   1422.74658     736.1277     598.7820   1422.74658     736.1277     598.7820
   1422.73132     734.0821     598.8674   1422.73132     734.0821     598.8674
   1422.71606     735.6572     597.4808   1422.71606     735.6572     597.4808
   1422.70081     734.4990     596.6596   1422.70081     734.4990     596.6596
   1422.68555     735.7510     596.5023   1422.68555     735.7510     596.5023
   1422.67029     734.9348     596.5743   1422.67029     734.9348     596.5743
   1422.65503     733.3016     595.5034   1422.65503     733.3016     595.5034
   1422.63977     733.3115     593.7874   1422.63977     733.3115     593.7874
   1422.62451     732.3251     591.9584   1422.62451     732.3251     591.9584
   1422.60925     733.0510     592.8767   1422.60925     733.0510     592.8767
   1422.59399     732.9466     592.0538   1422.59399     732.9466     592.0538
   1422.57874     732.4389     590.2167   1422.57874     732.4389     590.2167
   1422.56348     732.3583     590.1275   1422.56348     732.3583     590.1275
   1422.54822     731.5380     588.3297   1422.54822     731.5380     588.3297
   1422.53296     730.7630     588.4827   1422.53296     730.7630     588.4827
   1422.51770     731.6302     587.4802   1422.51770     731.6302     587.4802
   1422.50244     731.1795     586.2111   1422.50244     731.1795     586.2111
   1422.48718     731.6542     585.8459   1422.48718     731.6542     585.8459
   1422.47192     729.3972     584.1976   1422.47192     729.3972     584.1976
   1422.45667     730.7516     584.0898   1422.45667     730.7516     584.0898
   1422.44141     730.8569     582.9454   1422.44141     730.8569     582.9454
   1422.42615     730.4895     582.5068   1422.42615     730.4895     582.5068
   1422.41089     729.6799     582.0312   1422.41089     729.6799     582.0312
   1422.39563     730.0467     580.8429   1422.39563     730.0467     580.8429
   1422.38037     730.0715     579.9319   1422.38037     730.0715     579.9319
   1422.36511     728.4073     578.1303   1422.36511     728.4073     578.1303
   1422.34985     729.0958     577.5042   1422.34985     729.0958     577.5042
   1422.33459     727.7703     577.1763   1422.33459     727.7703     577.1763
   1422.31934     727.9119     576.1032   1422.31934     727.9119     576.1032
   1422.30408     728.3847     575.0959   1422.30408     728.3847     575.0959
   1422.28882     727.3563     573.6055   1422.28882     727.3563     573.6055
   1422.27356     729.0834     572.9272   1422.27356     729.0834     572.9272
   1422.25830     726.6781     572.8249   1422.25830     726.6781     572.8249
   1422.24304     728.0794     574.1034   1422.24304     728.0794     574.1034
   1422.22778     726.7764     572.7677   1422.22778     726.7764     572.7677
   1422.21252     726.6350     569.5486   1422.21252     726.6350     569.5486
   1422.19727     725.5106     568.3960   1422.19727     725.5106     568.3960
   1422.18201     726.9077     567.5414   1422.18201     726.9077     567.5414
   1422.16675     726.2644     566.8323   1422.16675     726.2644     566.8323
   1422.15149     727.0557     566.5950   1422.15149     727.0557     566.5950
   1422.13623     727.7399     565.0518   1422.13623     727.7399     565.0518
   1422.12097     724.9943     564.0587   1422.12097     724.9943     564.0587
   1422.10571     726.6167     562.7738   1422.10571     726.6167     562.7738
   1422.09045     726.1664     561.9020   1422.09045     726.1664     561.9020
   1422.07520     724.7181     561.0269   1422.07520     724.7181     561.0269
   1422.05994     725.4654     560.0610   1422.05994     725.4654     560.0610
   1422.04468     725.7247     558.8708   1422.04468     725.7247     558.8708
   1422.02942     724.3413     558.0904   1422.02942     724.3413     558.0904
   1422.01416     724.5443     556.8384   1422.01416     724.5443     556.8384
   1421.99890     723.2506     556.3074   1421.99890     723.2506     556.3074
   1421.98364     723.4063     554.9610   1421.98364     723.4063     554.9610
   1421.96838     724.1425     554.3829   1421.96838     724.1425     554.3829
   1421.95312     724.1105     553.6279   1421.95312     724.1105     553.6279
   1421.93787     724.2230     552.0212   1421.93787     724.2230     552.0212
   1421.92261     723.5314     551.2135   1421.92261     723.5314     551.2135
   1421.90735     722.1379     550.1721   1421.90735     722.1379     550.1721
   1421.89209     722.6573     549.6149   1421.89209     722.6573     549.6149
   1421.87683     723.2095     548.1925   1421.87683     723.2095     548.1925
   1421.86157     722.7260     547.2816   1421.86157     722.7260     547.2816
   1421.84631     722.1393     546.0299   1421.84631     722.1393     546.0299
   1421.83105     721.7344     546.4299   1421.83105     721.7344     546.4299
   1421.81580     721.6891     544.5398   1421.81580     721.6891     544.5398
   1421.80054     721.7760     543.2914   1421.80054     721.7760     543.2914
   1421.78528     721.2064     542.4030   1421.78528     721.2064     542.4030
   1421.77002     720.7134     540.9697   1421.77002     720.7134     540.9697
   1421.75476     720.6487     540.2465   1421.75476     720.6487     540.2465
   1421.73950     721.4567     539.4124   1421.73950     721.4567     539.4124
   1421.72424     720.9020     537.9973   1421.72424     720.9020     537.9973
   1421.70898     720.3187     537.6693   1421.70898     720.3187     537.6693
   1421.69373     720.5063     537.3718   1421.69373     720.5063     537.3718
   1421.67847     720.2453     534.9911   1421.67847     720.2453     534.9911
   1421.66321     719.9553     534.0359   1421.66321     719.9553     534.0359
   1421.64795     719.8588     533.5465   1421.64795     719.8588     533.5465
   1421.63269     719.6981     532.0778   1421.63269     719.6981     532.0778
   1421.61743     718.9959     531.7658   1421.61743     718.9959     531.7658
   1421.60217     720.3031     530.0408   1421.60217     720.3031     530.0408
   1421.58691     718.6389     529.3478   1421.58691     718.6389     529.3478
   1421.57166     719.7594     529.0242   1421.57166     719.7594     529.0242
   1421.55640     718.6957     527.4044   1421.55640     718.6957     527.4044
   1421.54114     719.9371     526.6249   1421.54114     719.9371     526.6249
   1421.52588     719.2699     525.4364   1421.52588     719.2699     525.4364
   1421.51062     720.1031     525.4471   1421.51062     720.1031     525.4471
   1421.49536     720.8648     523.2234   1421.49536     720.8648     523.2234
   1421.48010     720.2693     523.4223   1421.48010     720.2693     523.4223
   1421.46484     720.8641     522.8188   1421.46484     720.8641     522.8188
   1421.44958     719.6061     522.2802   1421.44958     719.6061     522.2802
   1421.43433     720.1182     521.5635   1421.43433     720.1182     521.5635
   1421.41907     720.0728     520.8591   1421.41907     720.0728     520.8591
   1421.40381     720.0831     519.4988   1421.40381     720.0831     519.4988
   1421.38855     719.2277     517.8547   1421.38855     719.2277     517.8547
   1421.37329     719.1102     516.3782   1421.37329     719.1102     516.3782
   1421.35803     718.7178     516.7427   1421.35803     718.7178     516.7427
   1421.34277     717.8602     514.5009   1421.34277     717.8602     514.5009
   1421.32751     716.7355     514.1239   1421.32751     716.7355     514.1239
   1421.31226     718.0477     512.7154   1421.31226     718.0477     512.7154
   1421.29700     717.7520     511.6819   1421.29700     717.7520     511.6819
   1421.28174     716.8209     509.5996   1421.28174     716.8209     509.5996
   1421.26648     716.4798     508.9704   1421.26648     716.4798     508.9704
   1421.25122     717.7172     508.6255   1421.25122     717.7172     508.6255
   1421.23596     717.8383     508.1032   1421.23596     717.8383     508.1032
   1421.22070     717.7824     506.9931   1421.22070     717.7824     506.9931
   1421.20544     717.4670     506.0042   1421.20544     717.4670     506.0042
   1421.19019     717.8845     505.0968   1421.19019     717.8845     505.0968
   1421.17493     718.7255     504.4999   1421.17493     718.7255     504.4999
   1421.15967     718.2520     504.2817   1421.15967     718.2520     504.2817
   1421.14441     719.8340     503.8973   1421.14441     719.8340     503.8973
   1421.12915     722.0336     504.3776   1421.12915     722.0336     504.3776
   1421.11389     726.8020     507.1039   1421.11389     726.8020     507.1039
   1421.09863     734.1022     510.6201   1421.09863     734.1022     510.6201
   1421.08337     739.7260     513.8382   1421.08337     739.7260     513.8382
   1421.06812     747.6630     519.0988   1421.06812     747.6630     519.0988
   1421.05286     756.9193     524.2952   1421.05286     756.9193     524.2952
   1421.03760     764.7095     527.2466   1421.03760     764.7095     527.2466
   1421.02234     765.6428     529.5108   1421.02234     765.6428     529.5108
   1421.00708     765.5886     527.2687   1421.00708     765.5886     527.2687
   1420.99182     764.2796     527.1225   1420.99182     764.2796     527.1225
   1420.97656     773.6191     530.6144   1420.97656     773.6191     530.6144
   1420.96130     790.6402     541.9437   1420.96130     790.6402     541.9437
   1420.94604     829.7568     565.4208   1420.94604     829.7568     565.4208
   1420.93079     933.8097     634.8000   1420.93079     933.8097     634.8000
   1420.91553    1111.3097     751.6100   1420.91553    1111.3097     751.6100
   1420.90027    1135.7483     764.8246   1420.90027    1135.7483     764.8246
   1420.88501    1040.3555     701.9944   1420.88501    1040.3555     701.9944
   1420.86975     933.5881     629.7985   1420.86975     933.5881     629.7985
   1420.85449     884.4815     597.4921   1420.85449     884.4815     597.4921
   1420.83923     892.3246     601.4120   1420.83923     892.3246     601.4120
   1420.82397     929.9102     624.4651   1420.82397     929.9102     624.4651
   1420.80872    1051.0453     703.6893   1420.80872    1051.0453     703.6893
   1420.79346    1228.3605     816.4973   1420.79346    1228.3605     816.4973
   1420.77820    1288.9263     854.2849   1420.77820    1288.9263     854.2849
   1420.76294    1360.2207     902.0306   1420.76294    1360.2207     902.0306
   1420.74768    1668.6580    1102.0930   1420.74768    1668.6580    1102.0930
   1420.73242    2046.2743    1347.3674   1420.73242    2046.2743    1347.3674
   1420.71716    2128.4758    1395.0603   1420.71716    2128.4758    1395.0603
   1420.70190    2009.0870    1316.5990   1420.70190    2009.0870    1316.5990
   1420.68665    1997.6649    1305.9403   1420.68665    1997.6649    1305.9403
   1420.67139    2099.3113    1368.4890   1420.67139    2099.3113    1368.4890
   1420.65613    2134.9150    1387.2511   1420.65613    2134.9150    1387.2511
   1420.64087    1923.9988    1247.2720   1420.64087    1923.9988    1247.2720
   1420.62561    1670.5387    1084.8093   1420.62561    1670.5387    1084.8093
   1420.61035    1476.6393     960.5263   1420.61035    1476.6393     960.5263
   1420.59509    1231.8177     803.5529   1420.59509    1231.8177     803.5529
   1420.57983    1060.9133     692.2891   1420.57983    1060.9133     692.2891
   1420.56458    1001.7234     654.6578   1420.56458    1001.7234     654.6578
   1420.54932    1013.0683     660.4106   1420.54932    1013.0683     660.4106
   1420.53406    1200.3494     777.4169   1420.53406    1200.3494     777.4169
   1420.51880    1605.5144    1034.0784   1420.51880    1605.5144    1034.0784
   1420.50354    1905.2507    1220.7462   1420.50354    1905.2507    1220.7462
   1420.48828    1863.6332    1193.4082   1420.48828    1863.6332    1193.4082
   1420.47302    1713.8003    1098.7192   1420.47302    1713.8003    1098.7192
   1420.45776    1616.6188    1033.2417   1420.45776    1616.6188    1033.2417
   1420.44250    1602.0481    1023.9120   1420.44250    1602.0481    1023.9120
   1420.42725    1304.7502     836.2330   1420.42725    1304.7502     836.2330
   1420.41199     972.5232     626.7624   1420.41199     972.5232     626.7624
   1420.39673     824.8109     531.9814   1420.39673     824.8109     531.9814
   1420.38147     763.9198     493.6500   1420.38147     763.9198     493.6500
   1420.36621     738.8958     476.6698   1420.36621     738.8958     476.6698
   1420.35095     726.5142     469.1924   1420.35095     726.5142     469.1924
   1420.33569     719.7531     465.0198   1420.33569     719.7531     465.0198
   1420.32043     716.9938     461.7849   1420.32043     716.9938     461.7849
   1420.30518     714.3412     459.9330   1420.30518     714.3412     459.9330
   1420.28992     712.4464     458.7560   1420.28992     712.4464     458.7560
   1420.27466     710.2592     457.7769   1420.27466     710.2592     457.7769
   1420.25940     710.8834     456.6935   1420.25940     710.8834     456.6935
   1420.24414     710.4967     455.3666   1420.24414     710.4967     455.3666
   1420.22888     709.2027     454.5816   1420.22888     709.2027     454.5816
   1420.21362     708.4556     453.4648   1420.21362     708.4556     453.4648
   1420.19836     708.4996     451.5764   1420.19836     708.4996     451.5764
   1420.18311     706.0459     451.2063   1420.18311     706.0459     451.2063
   1420.16785     706.1971     449.4897   1420.16785     706.1971     449.4897
   1420.15259     707.0551     450.5614   1420.15259     707.0551     450.5614
   1420.13733     705.4276     448.8602   1420.13733     705.4276     448.8602
   1420.12207     704.9344     447.4010   1420.12207     704.9344     447.4010
   1420.10681     702.9670     445.8389   1420.10681     702.9670     445.8389
   1420.09155     703.0975     445.6388   1420.09155     703.0975     445.6388
   1420.07629     703.1053     445.3491   1420.07629     703.1053     445.3491
   1420.06104     702.4058     444.3833   1420.06104     702.4058     444.3833
   1420.04578     702.1987     443.7785   1420.04578     702.1987     443.7785
   1420.03052     702.3990     444.0132   1420.03052     702.3990     444.0132
   1420.01526     701.6076     443.6472   1420.01526     701.6076     443.6472
   1420.00000     702.6265     443.8813   1420.00000     702.6265     443.8813
   1419.98474     703.6454     444.1154   1419.98474     703.6454     444.1154
   1419.96948     704.4788     442.6156   1419.96948     704.4788     442.6156
   1419.95422     700.9218     441.9815   1419.95422     700.9218     441.9815
   1419.93896     701.5095     441.0010   1419.93896     701.5095     441.0010
   1419.92371     702.1894     440.8304   1419.92371     702.1894     440.8304
   1419.90845     701.7546     439.7690   1419.90845     701.7546     439.7690
   1419.89319     700.4492     439.7111   1419.89319     700.4492     439.7111
   1419.87793     701.1237     438.7619   1419.87793     701.1237     438.7619
   1419.86267     701.2002     439.3714   1419.86267     701.2002     439.3714
   1419.84741     702.0199     438.6289   1419.84741     702.0199     438.6289
   1419.83215     701.2394     438.6808   1419.83215     701.2394     438.6808
   1419.81689     702.0214     437.5665   1419.81689     702.0214     437.5665
   1419.80164     701.3716     438.4539   1419.80164     701.3716     438.4539
   1419.78638     701.9297     437.7709   1419.78638     701.9297     437.7709
   1419.77112     702.3433     437.6475   1419.77112     702.3433     437.6475
   1419.75586     702.8398     436.9872   1419.75586     702.8398     436.9872
   1419.74060     701.0240     437.0049   1419.74060     701.0240     437.0049
   1419.72534     702.3463     437.5072   1419.72534     702.3463     437.5072
   1419.71008     702.0189     436.5088   1419.71008     702.0189     436.5088
   1419.69482     703.4253     436.0983   1419.69482     703.4253     436.0983
   1419.67957     702.0387     436.2716   1419.67957     702.0387     436.2716
   1419.66431     703.2558     436.0244   1419.66431     703.2558     436.0244
   1419.64905     704.7330     435.4835   1419.64905     704.7330     435.4835
   1419.63379     702.9670     435.4110   1419.63379     702.9670     435.4110
   1419.61853     704.5375     435.4698   1419.61853     704.5375     435.4698
   1419.60327     704.4234     435.5864   1419.60327     704.4234     435.5864
   1419.58801     704.1365     435.6278   1419.58801     704.1365     435.6278
   1419.57275     705.1901     435.5898   1419.57275     705.1901     435.5898
   1419.55750     704.4010     435.8108   1419.55750     704.4010     435.8108
   1419.54224     706.0244     434.2918   1419.54224     706.0244     434.2918
   1419.52698     705.2178     435.8523   1419.52698     705.2178     435.8523
   1419.51172     705.0543     435.0399   1419.51172     705.0543     435.0399
   1419.49646     706.0250     435.3466   1419.49646     706.0250     435.3466
   1419.48120     704.8763     435.1240   1419.48120     704.8763     435.1240
   1419.46594     706.2617     434.9373   1419.46594     706.2617     434.9373
   1419.45068     706.1006     434.9712   1419.45068     706.1006     434.9712
   1419.43542     706.5474     435.4987   1419.43542     706.5474     435.4987
   1419.42017     706.9237     435.6254   1419.42017     706.9237     435.6254
   1419.40491     707.0498     435.2639   1419.40491     707.0498     435.2639
   1419.38965     707.5641     435.4865   1419.38965     707.5641     435.4865
   1419.37439     708.4171     435.6581   1419.37439     708.4171     435.6581
   1419.35913     708.9144     435.5453   1419.35913     708.9144     435.5453
   1419.34387     708.5642     436.6570   1419.34387     708.5642     436.6570
   1419.32861     710.2004     435.4788   1419.32861     710.2004     435.4788
   1419.31335     710.1371     435.6034   1419.31335     710.1371     435.6034
   1419.29810     709.0319     435.9471   1419.29810     709.0319     435.9471
   1419.28284     710.5524     436.3361   1419.28284     710.5524     436.3361
   1419.26758     710.0202     436.4558   1419.26758     710.0202     436.4558
   1419.25232     711.0863     436.5902   1419.25232     711.0863     436.5902
   1419.23706     711.0195     436.8157   1419.23706     711.0195     436.8157
   1419.22180     711.9263     437.3283   1419.22180     711.9263     437.3283
   1419.20654     712.3722     437.2907   1419.20654     712.3722     437.2907
   1419.19128     712.7090     437.5421   1419.19128     712.7090     437.5421
   1419.17603     711.6834     438.3343   1419.17603     711.6834     438.3343
   1419.16077     712.7663     438.5827   1419.16077     712.7663     438.5827
   1419.14551     713.3109     438.0325   1419.14551     713.3109     438.0325
   1419.13025     713.4803     438.3310   1419.13025     713.4803     438.3310
   1419.11499     713.7062     439.1671   1419.11499     713.7062     439.1671
   1419.09973     715.5372     439.3470   1419.09973     715.5372     439.3470
   1419.08447     716.1992     438.8489   1419.08447     716.1992     438.8489
   1419.06921     715.0870     439.6169   1419.06921     715.0870     439.6169
   1419.05396     715.8507     440.2790   1419.05396     715.8507     440.2790
   1419.03870     717.6426     441.3195   1419.03870     717.6426     441.3195
   1419.02344     716.0612     440.8879   1419.02344     716.0612     440.8879
   1419.00818     717.8111     441.1945   1419.00818     717.8111     441.1945
   1418.99292     717.4086     441.7751   1418.99292     717.4086     441.7751
   1418.97766     718.5059     441.7680   1418.97766     718.5059     441.7680
   1418.96240     718.8181     442.2580   1418.96240     718.8181     442.2580
   1418.94714     720.7745     442.7080   1418.94714     720.7745     442.7080
   1418.93188     720.5567     442.7445   1418.93188     720.5567     442.7445
   1418.91663     719.9141     443.4265   1418.91663     719.9141     443.4265
   1418.90137     721.3615     444.1422   1418.90137     721.3615     444.1422
   1418.88611     721.3285     444.6550   1418.88611     721.3285     444.6550
   1418.87085     721.8596     444.7448   1418.87085     721.8596     444.7448
   1418.85559     723.0249     445.9993   1418.85559     723.0249     445.9993
   1418.84033     722.8328     445.9779   1418.84033     722.8328     445.9779
   1418.82507     724.6010     446.6064   1418.82507     724.6010     446.6064
   1418.80981     723.8840     447.4036   1418.80981     723.8840     447.4036
   1418.79456     724.6588     448.6892   1418.79456     724.6588     448.6892
   1418.77930     725.4505     448.7159   1418.77930     725.4505     448.7159
   1418.76404     726.4720     449.7317   1418.76404     726.4720     449.7317
   1418.74878     725.0806     449.7527   1418.74878     725.0806     449.7527
   1418.73352     726.7448     449.6165   1418.73352     726.7448     449.6165
   1418.71826     727.6411     450.7990   1418.71826     727.6411     450.7990
   1418.70300     727.2820     451.2645   1418.70300     727.2820     451.2645
   1418.68774     728.7673     452.3924   1418.68774     728.7673     452.3924
   1418.67249     729.4749     452.3684   1418.67249     729.4749     452.3684
   1418.65723     730.0808     453.2361   1418.65723     730.0808     453.2361
   1418.64197     730.1679     453.4522   1418.64197     730.1679     453.4522
   1418.62671     730.9255     454.4921   1418.62671     730.9255     454.4921
   1418.61145     731.5705     455.3960   1418.61145     731.5705     455.3960
   1418.59619     732.7784     456.6192   1418.59619     732.7784     456.6192
   1418.58093     733.4265     456.4185   1418.58093     733.4265     456.4185
   1418.56567     734.3670     457.1810   1418.56567     734.3670     457.1810
   1418.55042     735.2148     458.7528   1418.55042     735.2148     458.7528
   1418.53516     734.7239     459.0375   1418.53516     734.7239     459.0375
   1418.51990     736.5392     459.9970   1418.51990     736.5392     459.9970
   1418.50464     735.7190     460.4719   1418.50464     735.7190     460.4719
   1418.48938     736.6135     460.7980   1418.48938     736.6135     460.7980
   1418.47412     738.0938     462.2483   1418.47412     738.0938     462.2483
   1418.45886     739.1320     462.7303   1418.45886     739.1320     462.7303
   1418.44360     738.5167     463.8302   1418.44360     738.5167     463.8302
   1418.42834     740.0405     463.7465   1418.42834     740.0405     463.7465
   1418.41309     740.7899     465.6192   1418.41309     740.7899     465.6192
   1418.39783     742.1499     465.7648   1418.39783     742.1499     465.7648
   1418.38257     742.9879     466.5559   1418.38257     742.9879     466.5559
   1418.36731     742.2465     468.2177   1418.36731     742.2465     468.2177
   1418.35205     743.8230     468.6675   1418.35205     743.8230     468.6675
   1418.33679     743.9767     469.3832   1418.33679     743.9767     469.3832
   1418.32153     746.1928     470.5721   1418.32153     746.1928     470.5721
   1418.30627     746.6232     471.8907   1418.30627     746.6232     471.8907
   1418.29102     746.2058     472.5627   1418.29102     746.2058     472.5627
   1418.27576     747.5905     473.1144   1418.27576     747.5905     473.1144
   1418.26050     748.2681     474.1880   1418.26050     748.2681     474.1880
   1418.24524     749.6706     474.8766   1418.24524     749.6706     474.8766
   1418.22998     749.5861     476.1397   1418.22998     749.5861     476.1397
   1418.21472     750.7884     476.7814   1418.21472     750.7884     476.7814
   1418.19946     752.5787     477.7271   1418.19946     752.5787     477.7271
   1418.18420     752.5268     479.1418   1418.18420     752.5268     479.1418
   1418.16895     753.4147     479.7491   1418.16895     753.4147     479.7491
   1418.15369     753.9918     481.0158   1418.15369     753.9918     481.0158
   1418.13843     755.2401     481.9432   1418.13843     755.2401     481.9432
   1418.12317     755.0715     482.2655   1418.12317     755.0715     482.2655
   1418.10791     756.4196     483.1166   1418.10791     756.4196     483.1166
   1418.09265     757.2738     484.9736   1418.09265     757.2738     484.9736
   1418.07739     757.7570     485.7794   1418.07739     757.7570     485.7794
   1418.06213     758.3474     485.6494   1418.06213     758.3474     485.6494
   1418.04688     760.5253     487.2422   1418.04688     760.5253     487.2422
   1418.03162     759.3053     488.2420   1418.03162     759.3053     488.2420
   1418.01636     761.3197     489.0450   1418.01636     761.3197     489.0450
   1418.00110     763.3138     490.6536   1418.00110     763.3138     490.6536
   1417.98584     762.8075     491.9831   1417.98584     762.8075     491.9831
   1417.97058     763.3133     492.6190   1417.97058     763.3133     492.6190
   1417.95532     764.4041     493.8449   1417.95532     764.4041     493.8449
   1417.94006     765.6945     495.1761   1417.94006     765.6945     495.1761
   1417.92480     766.3015     496.9640   1417.92480     766.3015     496.9640
   1417.90955     766.9011     496.4951   1417.90955     766.9011     496.4951
   1417.89429     769.4976     498.1622   1417.89429     769.4976     498.1622
   1417.87903     768.5796     498.7307   1417.87903     768.5796     498.7307
   1417.86377     770.0339     499.9111   1417.86377     770.0339     499.9111
   1417.84851     771.5650     501.9015   1417.84851     771.5650     501.9015
   1417.83325     772.5208     502.5605   1417.83325     772.5208     502.5605
   1417.81799     773.2811     503.0171   1417.81799     773.2811     503.0171
   1417.80273     773.6016     505.2461   1417.80273     773.6016     505.2461
   1417.78748     775.0984     505.6505   1417.78748     775.0984     505.6505
   1417.77222     776.5290     507.1487   1417.77222     776.5290     507.1487
   1417.75696     777.2414     508.4710   1417.75696     777.2414     508.4710
   1417.74170     777.9671     509.2681   1417.74170     777.9671     509.2681
   1417.72644     779.3740     510.0991   1417.72644     779.3740     510.0991
   1417.71118     780.0458     511.8987   1417.71118     780.0458     511.8987
   1417.69592     781.1323     512.4517   1417.69592     781.1323     512.4517
   1417.68066     781.4316     513.1865   1417.68066     781.4316     513.1865
   1417.66541     782.6376     514.8959   1417.66541     782.6376     514.8959
   1417.65015     781.6949     515.6158   1417.65015     781.6949     515.6158
   1417.63489     782.8196     516.9120   1417.63489     782.8196     516.9120
   1417.61963     783.9046     517.8652   1417.61963     783.9046     517.8652
   1417.60437     784.2903     518.8484   1417.60437     784.2903     518.8484
   1417.58911     785.1314     520.2089   1417.58911     785.1314     520.2089
   1417.57385     786.6968     521.8883   1417.57385     786.6968     521.8883
   1417.55859     787.3637     523.0930   1417.55859     787.3637     523.0930
   1417.54333     788.4977     523.9146   1417.54333     788.4977     523.9146
   1417.52808     788.7914     524.6944   1417.52808     788.7914     524.6944
   1417.51282     792.4169     526.1907   1417.51282     792.4169     526.1907
   1417.49756     792.1143     527.1638   1417.49756     792.1143     527.1638
   1417.48230     792.0499     527.8832   1417.48230     792.0499     527.8832
   1417.46704     792.8771     529.4534   1417.46704     792.8771     529.4534
   1417.45178     792.9900     530.0773   1417.45178     792.9900     530.0773
   1417.43652     794.9550     531.1975   1417.43652     794.9550     531.1975
   1417.42126     795.4883     532.4966   1417.42126     795.4883     532.4966
   1417.40601     796.1194     533.9570   1417.40601     796.1194     533.9570
   1417.39075     798.8651     535.4673   1417.39075     798.8651     535.4673
   1417.37549     800.2639     535.6663   1417.37549     800.2639     535.6663
   1417.36023     799.8069     537.2346   1417.36023     799.8069     537.2346
   1417.34497     801.0344     538.0687   1417.34497     801.0344     538.0687
   1417.32971     800.8047     539.0149   1417.32971     800.8047     539.0149
   1417.31445     802.5399     540.3482   1417.31445     802.5399     540.3482
   1417.29919     801.5526     540.9227   1417.29919     801.5526     540.9227
   1417.28394     804.0508     541.4158   1417.28394     804.0508     541.4158
   1417.26868     803.6885     543.0611   1417.26868     803.6885     543.0611
   1417.25342     804.4159     543.4189   1417.25342     804.4159     543.4189
   1417.23816     804.8674     545.4387   1417.23816     804.8674     545.4387
   1417.22290     806.9766     546.1937   1417.22290     806.9766     546.1937
   1417.20764     808.3842     547.5171   1417.20764     808.3842     547.5171
   1417.19238     808.4128     547.9913   1417.19238     808.4128     547.9913
   1417.17712     807.9944     549.1733   1417.17712     807.9944     549.1733
   1417.16187     810.1364     548.6207   1417.16187     810.1364     548.6207
   1417.14661     810.7950     551.1447   1417.14661     810.7950     551.1447
   1417.13135     811.4828     551.5656   1417.13135     811.4828     551.5656
   1417.11609     812.9723     553.2494   1417.11609     812.9723     553.2494
   1417.10083     812.4811     553.8005   1417.10083     812.4811     553.8005
   1417.08557     812.5510     553.9846   1417.08557     812.5510     553.9846
   1417.07031     812.3055     556.9015   1417.07031     812.3055     556.9015
   1417.05505     813.9279     556.5027   1417.05505     813.9279     556.5027
   1417.03979     815.7677     557.1974   1417.03979     815.7677     557.1974
   1417.02454     815.1573     557.9899   1417.02454     815.1573     557.9899
   1417.00928     816.3098     558.9708   1417.00928     816.3098     558.9708
   1416.99402     817.7875     559.3901   1416.99402     817.7875     559.3901
   1416.97876     817.9188     560.2311   1416.97876     817.9188     560.2311
   1416.96350     817.3688     560.1832   1416.96350     817.3688     560.1832
   1416.94824     818.7299     562.2010   1416.94824     818.7299     562.2010
   1416.93298     819.9920     562.5642   1416.93298     819.9920     562.5642
   1416.91772     819.7580     562.8767   1416.91772     819.7580     562.8767
   1416.90247     819.6270     564.1671   1416.90247     819.6270     564.1671
   1416.88721     820.7363     565.0122   1416.88721     820.7363     565.0122
   1416.87195     821.8893     565.2748   1416.87195     821.8893     565.2748
   1416.85669     820.8300     565.3351   1416.85669     820.8300     565.3351
   1416.84143     822.8741     565.4754   1416.84143     822.8741     565.4754
   1416.82617     823.7144     565.8510   1416.82617     823.7144     565.8510
   1416.81091     823.8314     566.8695   1416.81091     823.8314     566.8695
   1416.79565     824.1616     567.8734   1416.79565     824.1616     567.8734
   1416.78040     824.1721     568.1298   1416.78040     824.1721     568.1298
   1416.76514     824.3831     567.5405   1416.76514     824.3831     567.5405
   1416.74988     824.8906     568.3484   1416.74988     824.8906     568.3484
   1416.73462     826.0752     570.1716   1416.73462     826.0752     570.1716
   1416.71936     827.3030     569.4256   1416.71936     827.3030     569.4256
   1416.70410     825.4418     570.5540   1416.70410     825.4418     570.5540
   1416.68884     827.1221     569.2758   1416.68884     827.1221     569.2758
   1416.67358     826.4525     570.2023   1416.67358     826.4525     570.2023
   1416.65833     825.8596     569.9499   1416.65833     825.8596     569.9499
   1416.64307     828.0710     571.8182   1416.64307     828.0710     571.8182
   1416.62781     827.3406     570.9640   1416.62781     827.3406     570.9640
   1416.61255     827.7424     569.9562   1416.61255     827.7424     569.9562
   1416.59729     828.3697     571.3904   1416.59729     828.3697     571.3904
   1416.58203     827.9484     571.4293   1416.58203     827.9484     571.4293
   1416.56677     827.8917     571.1499   1416.56677     827.8917     571.1499
   1416.55151     828.1469     571.6617   1416.55151     828.1469     571.6617
   1416.53625     828.3493     571.6554   1416.53625     828.3493     571.6554
   1416.52100     828.7482     570.7962   1416.52100     828.7482     570.7962
   1416.50574     828.6315     571.9780   1416.50574     828.6315     571.9780
   1416.49048     829.0407     571.8304   1416.49048     829.0407     571.8304
   1416.47522     829.0232     572.1080   1416.47522     829.0232     572.1080
   1416.45996     829.4763     570.6269   1416.45996     829.4763     570.6269
   1416.44470     827.8773     570.9921   1416.44470     827.8773     570.9921
   1416.42944     829.5109     569.3151   1416.42944     829.5109     569.3151
   1416.41418     829.3943     570.9947   1416.41418     829.3943     570.9947
   1416.39893     829.4663     569.6821   1416.39893     829.4663     569.6821
   1416.38367     828.7116     569.8656   1416.38367     828.7116     569.8656
   1416.36841     828.6906     569.4984   1416.36841     828.6906     569.4984
   1416.35315     828.9120     569.8499   1416.35315     828.9120     569.8499
   1416.33789     829.7068     570.1398   1416.33789     829.7068     570.1398
   1416.32263     828.8972     569.1830   1416.32263     828.8972     569.1830
   1416.30737     829.0547     568.5912   1416.30737     829.0547     568.5912
   1416.29211     827.5411     567.8309   1416.29211     827.5411     567.8309
   1416.27686     827.4883     567.5919   1416.27686     827.4883     567.5919
   1416.26160     828.0690     566.2761   1416.26160     828.0690     566.2761
   1416.24634     827.1935     566.5792   1416.24634     827.1935     566.5792
   1416.23108     828.0583     565.8730   1416.23108     828.0583     565.8730
   1416.21582     826.9774     566.4293   1416.21582     826.9774     566.4293
   1416.20056     828.8925     566.1802   1416.20056     828.8925     566.1802
   1416.18530     826.2195     564.8624   1416.18530     826.2195     564.8624
   1416.17004     827.1852     563.8356   1416.17004     827.1852     563.8356
   1416.15479     825.8395     564.2071   1416.15479     825.8395     564.2071
   1416.13953     825.0389     563.2919   1416.13953     825.0389     563.2919
   1416.12427     825.4650     562.9291   1416.12427     825.4650     562.9291
   1416.10901     825.2438     561.9498   1416.10901     825.2438     561.9498
   1416.09375     825.5303     561.2343   1416.09375     825.5303     561.2343
   1416.07849     825.2611     561.0720   1416.07849     825.2611     561.0720
   1416.06323     824.3997     561.0976   1416.06323     824.3997     561.0976
   1416.04797     821.8001     559.3991   1416.04797     821.8001     559.3991
   1416.03271     823.7486     559.4824   1416.03271     823.7486     559.4824
   1416.01746     822.8473     558.5054   1416.01746     822.8473     558.5054
   1416.00220     821.8590     557.5876   1416.00220     821.8590     557.5876
   1415.98694     821.3758     556.5695   1415.98694     821.3758     556.5695
   1415.97168     822.6953     556.2355   1415.97168     822.6953     556.2355
   1415.95642     820.6937     556.3531   1415.95642     820.6937     556.3531
   1415.94116     821.8362     553.9401   1415.94116     821.8362     553.9401
   1415.92590     819.7237     554.1174   1415.92590     819.7237     554.1174
   1415.91064     819.8964     552.9692   1415.91064     819.8964     552.9692
   1415.89539     820.3094     552.3800   1415.89539     820.3094     552.3800
   1415.88013     818.7081     552.0621   1415.88013     818.7081     552.0621
   1415.86487     817.5448     551.0798   1415.86487     817.5448     551.0798
   1415.84961     817.4332     550.5158   1415.84961     817.4332     550.5158
   1415.83435     817.6619     549.6673   1415.83435     817.6619     549.6673
   1415.81909     818.0148     548.4415   1415.81909     818.0148     548.4415
   1415.80383     816.5441     548.2706   1415.80383     816.5441     548.2706
   1415.78857     815.9971     547.1177   1415.78857     815.9971     547.1177
   1415.77332     814.9165     545.1730   1415.77332     814.9165     545.1730
   1415.75806     813.4885     545.8881   1415.75806     813.4885     545.8881
   1415.74280     813.6149     544.4537   1415.74280     813.6149     544.4537
   1415.72754     813.6877     543.8795   1415.72754     813.6877     543.8795
   1415.71228     811.9838     543.5522   1415.71228     811.9838     543.5522
   1415.69702     812.3904     543.2880   1415.69702     812.3904     543.2880
   1415.68176     810.8946     541.1905   1415.68176     810.8946     541.1905
   1415.66650     810.9100     540.3616   1415.66650     810.9100     540.3616
   1415.65125     808.6699     538.5635   1415.65125     808.6699     538.5635
   1415.63599     807.5931     538.7227   1415.63599     807.5931     538.7227
   1415.62073     808.4507     537.5107   1415.62073     808.4507     537.5107
   1415.60547     806.6104     536.8751   1415.60547     806.6104     536.8751
   1415.59021     807.0638     535.4255   1415.59021     807.0638     535.4255
   1415.57495     804.9390     535.3943   1415.57495     804.9390     535.3943
   1415.55969     804.1083     534.0402   1415.55969     804.1083     534.0402
   1415.54443     804.6318     532.7097   1415.54443     804.6318     532.7097
   1415.52917     802.7889     532.3187   1415.52917     802.7889     532.3187
   1415.51392     801.3954     531.1484   1415.51392     801.3954     531.1484
   1415.49866     801.7962     529.9908   1415.49866     801.7962     529.9908
   1415.48340     799.5425     529.0898   1415.48340     799.5425     529.0898
   1415.46814     798.6762     528.9553   1415.46814     798.6762     528.9553
   1415.45288     799.7134     527.9952   1415.45288     799.7134     527.9952
   1415.43762     797.1570     526.4568   1415.43762     797.1570     526.4568
   1415.42236     796.5385     525.3883   1415.42236     796.5385     525.3883
   1415.40710     795.3881     524.8652   1415.40710     795.3881     524.8652
   1415.39185     794.0950     523.5114   1415.39185     794.0950     523.5114
   1415.37659     792.9755     522.1464   1415.37659     792.9755     522.1464
   1415.36133     793.0220     521.1517   1415.36133     793.0220     521.1517
   1415.34607     791.8604     520.2769   1415.34607     791.8604     520.2769
   1415.33081     789.7847     519.9873   1415.33081     789.7847     519.9873
   1415.31555     788.4883     518.6786   1415.31555     788.4883     518.6786
   1415.30029     788.2249     517.7150   1415.30029     788.2249     517.7150
   1415.28503     787.1793     517.1464   1415.28503     787.1793     517.1464
   1415.26978     786.6108     515.7126   1415.26978     786.6108     515.7126
   1415.25452     784.3295     515.1874   1415.25452     784.3295     515.1874
   1415.23926     781.6006     513.3516   1415.23926     781.6006     513.3516
   1415.22400     781.6515     512.2525   1415.22400     781.6515     512.2525
   1415.20874     780.1155     510.5042   1415.20874     780.1155     510.5042
   1415.19348     777.6149     510.8165   1415.19348     777.6149     510.8165
   1415.17822     779.3755     509.1712   1415.17822     779.3755     509.1712
   1415.16296     775.8281     509.2826   1415.16296     775.8281     509.2826
   1415.14771     776.3008     507.4668   1415.14771     776.3008     507.4668
   1415.13245     773.4349     505.2265   1415.13245     773.4349     505.2265
   1415.11719     772.4153     505.0071   1415.11719     772.4153     505.0071
   1415.10193     770.3633     503.5334   1415.10193     770.3633     503.5334
   1415.08667     770.2753     502.7971   1415.08667     770.2753     502.7971
   1415.07141     768.9287     501.7989   1415.07141     768.9287     501.7989
   1415.05615     766.8740     500.3332   1415.05615     766.8740     500.3332
   1415.04089     764.8842     500.0218   1415.04089     764.8842     500.0218
   1415.02563     763.0849     498.2117   1415.02563     763.0849     498.2117
   1415.01038     762.0627     497.2584   1415.01038     762.0627     497.2584
   1414.99512     759.7729     495.8593   1414.99512     759.7729     495.8593
   1414.97986     759.4727     494.8620   1414.97986     759.4727     494.8620
   1414.96460     757.1110     493.4152   1414.96460     757.1110     493.4152
   1414.94934     756.0551     493.1351   1414.94934     756.0551     493.1351
   1414.93408     753.5150     491.1002   1414.93408     753.5150     491.1002
   1414.91882     751.5833     489.8579   1414.91882     751.5833     489.8579
   1414.90356     750.0249     487.1980   1414.90356     750.0249     487.1980
   1414.88831     749.3370     486.7608   1414.88831     749.3370     486.7608
   1414.87305     747.1219     485.9829   1414.87305     747.1219     485.9829
   1414.85779     745.9829     484.4375   1414.85779     745.9829     484.4375
   1414.84253     742.5280     484.2617   1414.84253     742.5280     484.2617
   1414.82727     742.4891     482.4043   1414.82727     742.4891     482.4043
   1414.81201     739.4836     480.4648   1414.81201     739.4836     480.4648
   1414.79675     737.5137     479.1832   1414.79675     737.5137     479.1832
   1414.78149     734.9348     479.1180   1414.78149     734.9348     479.1180
   1414.76624     731.7224     476.9407   1414.76624     731.7224     476.9407
   1414.75098     731.3308     475.7503   1414.75098     731.3308     475.7503
   1414.73572     730.6742     473.6828   1414.73572     730.6742     473.6828
   1414.72046     727.5632     473.2048   1414.72046     727.5632     473.2048
   1414.70520     725.8563     471.8922   1414.70520     725.8563     471.8922
   1414.68994     724.6007     470.9338   1414.68994     724.6007     470.9338
   1414.67468     720.4307     468.6267   1414.67468     720.4307     468.6267
   1414.65942     719.2610     467.1813   1414.65942     719.2610     467.1813
   1414.64417     716.3115     466.8096   1414.64417     716.3115     466.8096
   1414.62891     715.1485     465.0588   1414.62891     715.1485     465.0588
   1414.61365     711.8942     463.7184   1414.61365     711.8942     463.7184
   1414.59839     711.6146     461.9370   1414.59839     711.6146     461.9370
   1414.58313     708.5898     460.2444   1414.58313     708.5898     460.2444
   1414.56787     706.0875     458.8493   1414.56787     706.0875     458.8493
   1414.55261     702.4071     456.8813   1414.55261     702.4071     456.8813
   1414.53735     701.0459     455.4361   1414.53735     701.0459     455.4361
   1414.52209     700.0985     455.3988   1414.52209     700.0985     455.3988
   1414.50684     697.2650     453.9730   1414.50684     697.2650     453.9730
   1414.49158     694.7359     451.6871   1414.49158     694.7359     451.6871
   1414.47632     692.1697     450.6183   1414.47632     692.1697     450.6183
   1414.46106     689.1754     448.7499   1414.46106     689.1754     448.7499
   1414.44580     687.9714     446.8741   1414.44580     687.9714     446.8741
   1414.43054     684.9351     445.5774   1414.43054     684.9351     445.5774
   1414.41528     681.0983     444.4406   1414.41528     681.0983     444.4406
   1414.40002     679.7659     443.2707   1414.40002     679.7659     443.2707
   1414.38477     676.6297     442.2526   1414.38477     676.6297     442.2526
   1414.36951     675.1232     439.1271   1414.36951     675.1232     439.1271
   1414.35425     671.5328     438.0516   1414.35425     671.5328     438.0516
   1414.33899     669.8552     436.0652   1414.33899     669.8552     436.0652
   1414.32373     668.0598     435.1173   1414.32373     668.0598     435.1173
   1414.30847     664.9785     433.3068   1414.30847     664.9785     433.3068
   1414.29321     662.1514     431.6400   1414.29321     662.1514     431.6400
   1414.27795     658.8497     429.6921   1414.27795     658.8497     429.6921
   1414.26270     656.9580     427.9167   1414.26270     656.9580     427.9167
   1414.24744     652.8890     426.3763   1414.24744     652.8890     426.3763
   1414.23218     651.6126     425.1859   1414.23218     651.6126     425.1859
   1414.21692     647.9615     423.3210   1414.21692     647.9615     423.3210
   1414.20166     644.6351     422.0419   1414.20166     644.6351     422.0419
   1414.18640     642.5755     420.0145   1414.18640     642.5755     420.0145
   1414.17114     639.3270     419.1193   1414.17114     639.3270     419.1193
   1414.15588     637.2979     416.4531   1414.15588     637.2979     416.4531
   1414.14062     634.2852     415.1386   1414.14062     634.2852     415.1386
   1414.12537     630.8738     413.2303   1414.12537     630.8738     413.2303
   1414.11011     629.0718     411.4418   1414.11011     629.0718     411.4418
   1414.09485     625.2988     410.5400   1414.09485     625.2988     410.5400
   1414.07959     622.7757     408.7143   1414.07959     622.7757     408.7143
   1414.06433     620.5303     406.3339   1414.06433     620.5303     406.3339
   1414.04907     618.1304     404.3320   1414.04907     618.1304     404.3320
   1414.03381     615.6257     403.3287   1414.03381     615.6257     403.3287
   1414.01855     612.7711     401.7430   1414.01855     612.7711     401.7430
   1414.00330     635.4902     407.6401   1414.00330     635.4902     407.6401
   1413.98804     608.0260     398.6134   1413.98804     608.0260     398.6134
   1413.97278     604.1210     396.4188   1413.97278     604.1210     396.4188
   1413.95752     598.9866     394.9568   1413.95752     598.9866     394.9568
   1413.94226     597.0176     393.3338   1413.94226     597.0176     393.3338
   1413.92700     593.0406     391.0026   1413.92700     593.0406     391.0026
   1413.91174     590.7468     389.3779   1413.91174     590.7468     389.3779
   1413.89648     587.7406     387.1236   1413.89648     587.7406     387.1236
   1413.88123     584.1174     385.8844   1413.88123     584.1174     385.8844
   1413.86597     581.0297     383.3634   1413.86597     581.0297     383.3634
   1413.85071     578.3749     382.4351   1413.85071     578.3749     382.4351
   1413.83545     575.6218     380.5606   1413.83545     575.6218     380.5606
   1413.82019     573.2039     378.8420   1413.82019     573.2039     378.8420
   1413.80493     569.6517     376.9963   1413.80493     569.6517     376.9963
   1413.78967     566.7255     375.1604   1413.78967     566.7255     375.1604
   1413.77441     563.2590     373.5830   1413.77441     563.2590     373.5830
   1413.75916     560.6099     371.9111   1413.75916     560.6099     371.9111
   1413.74390     557.7025     369.8647   1413.74390     557.7025     369.8647
   1413.72864     554.3602     368.5799   1413.72864     554.3602     368.5799
   1413.71338     551.8488     365.8787   1413.71338     551.8488     365.8787
   1413.69812     547.6232     364.3360   1413.69812     547.6232     364.3360
   1413.68286     544.9362     363.4320   1413.68286     544.9362     363.4320
   1413.66760     541.8422     360.4990   1413.66760     541.8422     360.4990
   1413.65234     538.8759     359.8239   1413.65234     538.8759     359.8239
   1413.63708     535.7609     357.3801   1413.63708     535.7609     357.3801
   1413.62183     532.5416     356.1164   1413.62183     532.5416     356.1164
   1413.60657     530.5002     354.0512   1413.60657     530.5002     354.0512
   1413.59131     526.8127     352.2095   1413.59131     526.8127     352.2095
   1413.57605     523.9124     351.1253   1413.57605     523.9124     351.1253
   1413.56079     521.2552     349.4831   1413.56079     521.2552     349.4831
   1413.54553     518.6602     347.3723   1413.54553     518.6602     347.3723
   1413.53027     515.6534     345.9981   1413.53027     515.6534     345.9981
   1413.51501     512.6133     344.6283   1413.51501     512.6133     344.6283
   1413.49976     509.4863     342.2217   1413.49976     509.4863     342.2217
   1413.48450     506.4624     341.0526   1413.48450     506.4624     341.0526
   1413.46924     503.6933     338.9352   1413.46924     503.6933     338.9352
   1413.45398     500.4255     337.4977   1413.45398     500.4255     337.4977
   1413.43872     497.0916     335.7797   1413.43872     497.0916     335.7797
   1413.42346     494.3130     334.1869   1413.42346     494.3130     334.1869
   1413.40820     491.9542     332.9470   1413.40820     491.9542     332.9470
   1413.39294     488.9578     331.3445   1413.39294     488.9578     331.3445
   1413.37769     485.3897     329.6375   1413.37769     485.3897     329.6375
   1413.36243     483.0839     327.3076   1413.36243     483.0839     327.3076
   1413.34717     480.6424     326.3869   1413.34717     480.6424     326.3869
   1413.33191     476.9925     324.7661   1413.33191     476.9925     324.7661
   1413.31665     474.3500     322.8784   1413.31665     474.3500     322.8784
   1413.30139     472.4738     321.9544   1413.30139     472.4738     321.9544
   1413.28613     469.0990     319.8959   1413.28613     469.0990     319.8959
   1413.27087     467.0865     318.6063   1413.27087     467.0865     318.6063
   1413.25562     464.2502     317.1178   1413.25562     464.2502     317.1178
   1413.24036     461.0511     315.4539   1413.24036     461.0511     315.4539
   1413.22510     458.3094     314.3774   1413.22510     458.3094     314.3774
   1413.20984     455.8551     312.7803   1413.20984     455.8551     312.7803
   1413.19458     453.0082     311.2227   1413.19458     453.0082     311.2227
   1413.17932     450.5850     309.4103   1413.17932     450.5850     309.4103
   1413.16406     448.4514     308.5683   1413.16406     448.4514     308.5683
   1413.14880     444.9765     307.1075   1413.14880     444.9765     307.1075
   1413.13354     443.3060     305.9373   1413.13354     443.3060     305.9373
   1413.11829     440.8171     304.7372   1413.11829     440.8171     304.7372
   1413.10303     439.7212     303.8155   1413.10303     439.7212     303.8155
   1413.08777     436.2062     302.1173   1413.08777     436.2062     302.1173
   1413.07251     434.1093     300.7155   1413.07251     434.1093     300.7155
   1413.05725     431.4880     299.8305   1413.05725     431.4880     299.8305
   1413.04199     429.5550     298.5283   1413.04199     429.5550     298.5283
   1413.02673     427.3064     297.0283   1413.02673     427.3064     297.0283
   1413.01147     425.2443     296.0158   1413.01147     425.2443     296.0158
   1412.99622     423.2443     294.9199   1412.99622     423.2443     294.9199
   1412.98096     420.4084     293.9648   1412.98096     420.4084     293.9648
   1412.96570     418.6502     292.9553   1412.96570     418.6502     292.9553
   1412.95044     416.6783     292.1392   1412.95044     416.6783     292.1392
   1412.93518     414.8086     290.8472   1412.93518     414.8086     290.8472
   1412.91992     412.2568     289.7650   1412.91992     412.2568     289.7650
   1412.90466     411.2388     289.1582   1412.90466     411.2388     289.1582
   1412.88940     408.9023     287.6511   1412.88940     408.9023     287.6511
   1412.87415     407.7116     287.3342   1412.87415     407.7116     287.3342
   1412.85889     405.7707     285.9743   1412.85889     405.7707     285.9743
   1412.84363     403.5490     285.4103   1412.84363     403.5490     285.4103
   1412.82837     402.0810     284.5001   1412.82837     402.0810     284.5001
   1412.81311     400.3059     284.0301   1412.81311     400.3059     284.0301
   1412.79785     398.6627     282.9151   1412.79785     398.6627     282.9151
   1412.78259     397.2617     282.1650   1412.78259     397.2617     282.1650
   1412.76733     396.2064     281.5591   1412.76733     396.2064     281.5591
   1412.75208     395.1736     281.2920   1412.75208     395.1736     281.2920
   1412.73682     392.7703     280.1448   1412.73682     392.7703     280.1448
   1412.72156     391.3540     279.8450   1412.72156     391.3540     279.8450
   1412.70630     390.2937     279.0033   1412.70630     390.2937     279.0033
   1412.69104     388.9750     278.8473   1412.69104     388.9750     278.8473
   1412.67578     387.5770     277.9709   1412.67578     387.5770     277.9709
   1412.66052     386.7542     277.6245   1412.66052     386.7542     277.6245
   1412.64526     385.6066     277.4350   1412.64526     385.6066     277.4350
   1412.63000     384.4344     276.7219   1412.63000     384.4344     276.7219
   1412.61475     383.9484     276.5987   1412.61475     383.9484     276.5987
   1412.59949     382.3560     276.4458   1412.59949     382.3560     276.4458
   1412.58423     381.7475     276.2668   1412.58423     381.7475     276.2668
   1412.56897     381.3891     275.9670   1412.56897     381.3891     275.9670
   1412.55371     380.3824     275.7591   1412.55371     380.3824     275.7591
   1412.53845     379.2014     275.4057   1412.53845     379.2014     275.4057
   1412.52319     378.8745     275.8123   1412.52319     378.8745     275.8123
   1412.50793     378.6642     275.2736   1412.50793     378.6642     275.2736
   1412.49268     377.2339     275.1091   1412.49268     377.2339     275.1091
   1412.47742     377.4484     275.3950   1412.47742     377.4484     275.3950
   1412.46216     376.4488     275.2010   1412.46216     376.4488     275.2010
   1412.44690     376.1530     275.4520   1412.44690     376.1530     275.4520
   1412.43164     376.0613     275.4534   1412.43164     376.0613     275.4534
   1412.41638     375.4786     275.6097   1412.41638     375.4786     275.6097
   1412.40112     375.7174     276.3102   1412.40112     375.7174     276.3102
   1412.38586     375.4850     276.6764   1412.38586     375.4850     276.6764
   1412.37061     375.4626     276.9838   1412.37061     375.4626     276.9838
   1412.35535     375.4407     277.0465   1412.35535     375.4407     277.0465
   1412.34009     375.1296     277.5814   1412.34009     375.1296     277.5814
   1412.32483     375.3358     277.8191   1412.32483     375.3358     277.8191
   1412.30957     375.8421     278.5749   1412.30957     375.8421     278.5749
   1412.29431     376.0526     278.7909   1412.29431     376.0526     278.7909
   1412.27905     375.8671     279.5468   1412.27905     375.8671     279.5468
   1412.26379     376.1523     280.2340   1412.26379     376.1523     280.2340
   1412.24854     376.4258     280.8967   1412.24854     376.4258     280.8967
   1412.23328     377.1812     281.6244   1412.23328     377.1812     281.6244
   1412.21802     378.2540     282.2066   1412.21802     378.2540     282.2066
   1412.20276     378.5587     282.7320   1412.20276     378.5587     282.7320