#     FILENAME=!Skynet_57528_lach-hhg-152_20500_20976.cyb.fits
#     BASENAME=Skynet_57528_lach-hhg-152_20500_20976
#     SRC_NAME=lach-hhg-152
#     OBSERVER=hhgmadison16_9500
#     DATE_OBS=2016-05-20T17:41:32.870
#        OBSID=20500
#      SCANNUM=20976
#          MJD=57528.7382
#          UTC=63782
#     SCANTYPE=track
#     DATAMODE=HIRES
#     TUNEFREQ=1420.0000
# Actual_FREQ1=1420.0000
# Actual_FREQ2=1420.0000
#    LO1Tuning=6870.000
#     RFFILTER=1355_1435
#        OBSBW=-15.6250
#        NCHAN=1024 
#        FOCUS=37.0709
#           RA=04:13:57.44
#          DEC=51:04:03.71
#      RA(hrs)=4.232600
#     DEC(deg)=51.067700
#    AZIM(deg)=357.933
#    ELEV(deg)=77.250
#     IFattens=10.00, 10.00
#      WARNING=None
#    TCAL_XL1=7.9635
#    TCAL_YR1=9.1340
#    TCAL_XL2=7.9635
#    TCAL_YR2=9.1340
#     TRX_XL1=11.7060
#     TRX_YR1=11.7060
#     TRX_XL2=11.7060
#     TRX_YR2=11.7060
#        TAVE=1.0000
#Freq1(MHz)          XL1          YR1  Freq2(MHz)          XL2          YR2 

   1427.81250     302.0190     339.4244   1427.81250     302.0190     339.4244
   1427.79724     302.3351     340.3739   1427.79724     302.3351     340.3739
   1427.78198     302.8763     342.0173   1427.78198     302.8763     342.0173
   1427.76672     303.5384     343.8124   1427.76672     303.5384     343.8124
   1427.75146     304.5181     345.0702   1427.75146     304.5181     345.0702
   1427.73621     304.6958     347.2078   1427.73621     304.6958     347.2078
   1427.72095     306.1854     348.1208   1427.72095     306.1854     348.1208
   1427.70569     306.9318     349.8251   1427.70569     306.9318     349.8251
   1427.69043     307.0449     351.9272   1427.69043     307.0449     351.9272
   1427.67517     308.2002     353.1006   1427.67517     308.2002     353.1006
   1427.65991     309.1010     355.1654   1427.65991     309.1010     355.1654
   1427.64465     309.9929     356.8181   1427.64465     309.9929     356.8181
   1427.62939     310.6407     358.4818   1427.62939     310.6407     358.4818
   1427.61414     311.7769     361.0060   1427.61414     311.7769     361.0060
   1427.59888     312.9649     362.3376   1427.59888     312.9649     362.3376
   1427.58362     313.8428     364.1634   1427.58362     313.8428     364.1634
   1427.56836     315.4079     366.0881   1427.56836     315.4079     366.0881
   1427.55310     316.9344     368.6984   1427.55310     316.9344     368.6984
   1427.53784     317.6329     370.7958   1427.53784     317.6329     370.7958
   1427.52258     318.2879     372.5179   1427.52258     318.2879     372.5179
   1427.50732     320.4592     374.0773   1427.50732     320.4592     374.0773
   1427.49207     321.6457     376.4821   1427.49207     321.6457     376.4821
   1427.47681     322.4350     378.6629   1427.47681     322.4350     378.6629
   1427.46155     324.0420     381.2790   1427.46155     324.0420     381.2790
   1427.44629     326.2191     383.1418   1427.44629     326.2191     383.1418
   1427.43103     326.9370     385.1402   1427.43103     326.9370     385.1402
   1427.41577     328.7010     388.1922   1427.41577     328.7010     388.1922
   1427.40051     330.5242     390.0432   1427.40051     330.5242     390.0432
   1427.38525     331.8724     392.3939   1427.38525     331.8724     392.3939
   1427.37000     333.6540     394.4762   1427.37000     333.6540     394.4762
   1427.35474     335.3523     396.4875   1427.35474     335.3523     396.4875
   1427.33948     337.4294     398.6561   1427.33948     337.4294     398.6561
   1427.32422     338.7055     401.1361   1427.32422     338.7055     401.1361
   1427.30896     340.2293     403.2179   1427.30896     340.2293     403.2179
   1427.29370     342.6750     405.7050   1427.29370     342.6750     405.7050
   1427.27844     344.1387     408.2688   1427.27844     344.1387     408.2688
   1427.26318     346.2719     410.2336   1427.26318     346.2719     410.2336
   1427.24792     347.8947     412.5289   1427.24792     347.8947     412.5289
   1427.23267     349.2563     415.4174   1427.23267     349.2563     415.4174
   1427.21741     351.7538     417.4574   1427.21741     351.7538     417.4574
   1427.20215     353.7272     420.4962   1427.20215     353.7272     420.4962
   1427.18689     355.4890     422.7037   1427.18689     355.4890     422.7037
   1427.17163     357.4756     425.2351   1427.17163     357.4756     425.2351
   1427.15637     359.9319     427.2567   1427.15637     359.9319     427.2567
   1427.14111     361.3772     429.5517   1427.14111     361.3772     429.5517
   1427.12585     363.6668     433.0082   1427.12585     363.6668     433.0082
   1427.11060     366.2327     434.3380   1427.11060     366.2327     434.3380
   1427.09534     367.8016     437.7725   1427.09534     367.8016     437.7725
   1427.08008     370.2364     439.7576   1427.08008     370.2364     439.7576
   1427.06482     372.1645     442.3050   1427.06482     372.1645     442.3050
   1427.04956     374.7658     444.9576   1427.04956     374.7658     444.9576
   1427.03430     376.8187     447.6508   1427.03430     376.8187     447.6508
   1427.01904     379.2790     449.4694   1427.01904     379.2790     449.4694
   1427.00378     380.9668     452.5290   1427.00378     380.9668     452.5290
   1426.98853     383.8407     455.0892   1426.98853     383.8407     455.0892
   1426.97327     385.7921     456.4968   1426.97327     385.7921     456.4968
   1426.95801     388.3477     459.7018   1426.95801     388.3477     459.7018
   1426.94275     390.2976     461.2180   1426.94275     390.2976     461.2180
   1426.92749     393.3979     464.1812   1426.92749     393.3979     464.1812
   1426.91223     395.2670     467.1317   1426.91223     395.2670     467.1317
   1426.89697     397.7650     468.8972   1426.89697     397.7650     468.8972
   1426.88171     400.3041     471.9070   1426.88171     400.3041     471.9070
   1426.86646     402.1537     473.7005   1426.86646     402.1537     473.7005
   1426.85120     405.1287     475.3149   1426.85120     405.1287     475.3149
   1426.83594     407.0658     478.9783   1426.83594     407.0658     478.9783
   1426.82068     409.8492     480.7274   1426.82068     409.8492     480.7274
   1426.80542     411.3553     482.2811   1426.80542     411.3553     482.2811
   1426.79016     413.5338     485.6042   1426.79016     413.5338     485.6042
   1426.77490     416.4214     487.9608   1426.77490     416.4214     487.9608
   1426.75964     419.1906     490.0880   1426.75964     419.1906     490.0880
   1426.74438     422.2741     491.9695   1426.74438     422.2741     491.9695
   1426.72913     424.2751     494.3976   1426.72913     424.2751     494.3976
   1426.71387     427.2739     496.3267   1426.71387     427.2739     496.3267
   1426.69861     429.0199     498.2977   1426.69861     429.0199     498.2977
   1426.68335     431.4636     500.6204   1426.68335     431.4636     500.6204
   1426.66809     434.3917     502.5691   1426.66809     434.3917     502.5691
   1426.65283     437.2166     505.2280   1426.65283     437.2166     505.2280
   1426.63757     439.4982     506.8211   1426.63757     439.4982     506.8211
   1426.62231     441.6713     512.6967   1426.62231     441.6713     512.6967
   1426.60706     444.2240     512.5809   1426.60706     444.2240     512.5809
   1426.59180     447.0117     513.6796   1426.59180     447.0117     513.6796
   1426.57654     449.8271     515.6176   1426.57654     449.8271     515.6176
   1426.56128     452.0670     517.5605   1426.56128     452.0670     517.5605
   1426.54602     454.2215     520.6612   1426.54602     454.2215     520.6612
   1426.53076     456.8186     521.3207   1426.53076     456.8186     521.3207
   1426.51550     458.9794     524.4512   1426.51550     458.9794     524.4512
   1426.50024     461.8438     525.8211   1426.50024     461.8438     525.8211
   1426.48499     465.0346     527.6546   1426.48499     465.0346     527.6546
   1426.46973     466.8079     530.5621   1426.46973     466.8079     530.5621
   1426.45447     468.7836     531.9652   1426.45447     468.7836     531.9652
   1426.43921     471.6383     533.6212   1426.43921     471.6383     533.6212
   1426.42395     473.0829     536.1586   1426.42395     473.0829     536.1586
   1426.40869     476.5371     538.1241   1426.40869     476.5371     538.1241
   1426.39343     478.2654     539.2396   1426.39343     478.2654     539.2396
   1426.37817     481.6341     540.8136   1426.37817     481.6341     540.8136
   1426.36292     483.6611     542.4685   1426.36292     483.6611     542.4685
   1426.34766     485.5014     544.6011   1426.34766     485.5014     544.6011
   1426.33240     488.6517     545.7223   1426.33240     488.6517     545.7223
   1426.31714     490.0497     548.0682   1426.31714     490.0497     548.0682
   1426.30188     493.1762     549.5753   1426.30188     493.1762     549.5753
   1426.28662     494.9430     551.0275   1426.28662     494.9430     551.0275
   1426.27136     497.8202     552.6830   1426.27136     497.8202     552.6830
   1426.25610     499.8738     554.4426   1426.25610     499.8738     554.4426
   1426.24084     502.2487     556.3842   1426.24084     502.2487     556.3842
   1426.22559     504.5186     558.2084   1426.22559     504.5186     558.2084
   1426.21033     506.8103     559.5423   1426.21033     506.8103     559.5423
   1426.19507     508.8123     560.9803   1426.19507     508.8123     560.9803
   1426.17981     510.9760     561.7406   1426.17981     510.9760     561.7406
   1426.16455     513.7119     565.2361   1426.16455     513.7119     565.2361
   1426.14929     516.7052     564.8042   1426.14929     516.7052     564.8042
   1426.13403     518.2940     566.8185   1426.13403     518.2940     566.8185
   1426.11877     519.0682     568.2418   1426.11877     519.0682     568.2418
   1426.10352     522.3667     570.3357   1426.10352     522.3667     570.3357
   1426.08826     524.3174     571.4049   1426.08826     524.3174     571.4049
   1426.07300     525.6011     572.5383   1426.07300     525.6011     572.5383
   1426.05774     529.5325     572.7061   1426.05774     529.5325     572.7061
   1426.04248     530.2291     575.9227   1426.04248     530.2291     575.9227
   1426.02722     532.4567     576.7075   1426.02722     532.4567     576.7075
   1426.01196     534.5751     577.1200   1426.01196     534.5751     577.1200
   1425.99670     535.9392     579.1340   1425.99670     535.9392     579.1340
   1425.98145     539.0799     580.3163   1425.98145     539.0799     580.3163
   1425.96619     541.1682     580.8212   1425.96619     541.1682     580.8212
   1425.95093     542.3611     583.3414   1425.95093     542.3611     583.3414
   1425.93567     545.3672     583.6551   1425.93567     545.3672     583.6551
   1425.92041     546.4775     585.2394   1425.92041     546.4775     585.2394
   1425.90515     547.9513     585.9815   1425.90515     547.9513     585.9815
   1425.88989     550.6638     586.4050   1425.88989     550.6638     586.4050
   1425.87463     552.6411     588.3943   1425.87463     552.6411     588.3943
   1425.85938     552.7225     588.8440   1425.85938     552.7225     588.8440
   1425.84412     555.8651     589.9309   1425.84412     555.8651     589.9309
   1425.82886     557.7197     591.5853   1425.82886     557.7197     591.5853
   1425.81360     558.4287     591.4487   1425.81360     558.4287     591.4487
   1425.79834     561.3442     593.7556   1425.79834     561.3442     593.7556
   1425.78308     562.8712     592.1539   1425.78308     562.8712     592.1539
   1425.76782     564.8203     594.4023   1425.76782     564.8203     594.4023
   1425.75256     565.2390     595.4247   1425.75256     565.2390     595.4247
   1425.73730     567.2109     595.8557   1425.73730     567.2109     595.8557
   1425.72205     569.1365     597.7047   1425.72205     569.1365     597.7047
   1425.70679     570.6171     598.1327   1425.70679     570.6171     598.1327
   1425.69153     571.8652     598.4025   1425.69153     571.8652     598.4025
   1425.67627     573.7354     599.9232   1425.67627     573.7354     599.9232
   1425.66101     574.9927     600.2097   1425.66101     574.9927     600.2097
   1425.64575     575.8189     601.7361   1425.64575     575.8189     601.7361
   1425.63049     578.1557     602.6391   1425.63049     578.1557     602.6391
   1425.61523     578.0822     603.4368   1425.61523     578.0822     603.4368
   1425.59998     581.1215     602.9062   1425.59998     581.1215     602.9062
   1425.58472     582.0384     604.6524   1425.58472     582.0384     604.6524
   1425.56946     582.9922     603.9552   1425.56946     582.9922     603.9552
   1425.55420     583.8655     605.2828   1425.55420     583.8655     605.2828
   1425.53894     585.6781     606.3202   1425.53894     585.6781     606.3202
   1425.52368     587.1821     607.2617   1425.52368     587.1821     607.2617
   1425.50842     588.3134     607.5296   1425.50842     588.3134     607.5296
   1425.49316     589.2710     609.0493   1425.49316     589.2710     609.0493
   1425.47791     590.4190     608.8961   1425.47791     590.4190     608.8961
   1425.46265     591.2698     609.0481   1425.46265     591.2698     609.0481
   1425.44739     592.4799     608.8715   1425.44739     592.4799     608.8715
   1425.43213     593.4875     610.7050   1425.43213     593.4875     610.7050
   1425.41687     595.0853     610.8577   1425.41687     595.0853     610.8577
   1425.40161     596.0939     610.4272   1425.40161     596.0939     610.4272
   1425.38635     597.0773     611.7230   1425.38635     597.0773     611.7230
   1425.37109     597.3359     611.1596   1425.37109     597.3359     611.1596
   1425.35583     598.7151     612.3044   1425.35583     598.7151     612.3044
   1425.34058     600.0225     614.8124   1425.34058     600.0225     614.8124
   1425.32532     600.4160     613.2781   1425.32532     600.4160     613.2781
   1425.31006     601.6448     613.0261   1425.31006     601.6448     613.0261
   1425.29480     602.4771     613.7984   1425.29480     602.4771     613.7984
   1425.27954     603.2789     614.4592   1425.27954     603.2789     614.4592
   1425.26428     603.9500     614.8328   1425.26428     603.9500     614.8328
   1425.24902     604.3564     615.6399   1425.24902     604.3564     615.6399
   1425.23376     605.4855     614.7117   1425.23376     605.4855     614.7117
   1425.21851     606.2106     614.6588   1425.21851     606.2106     614.6588
   1425.20325     606.0284     614.6469   1425.20325     606.0284     614.6469
   1425.18799     607.4949     615.3810   1425.18799     607.4949     615.3810
   1425.17273     608.7810     616.2555   1425.17273     608.7810     616.2555
   1425.15747     608.9841     617.4058   1425.15747     608.9841     617.4058
   1425.14221     609.5367     617.0801   1425.14221     609.5367     617.0801
   1425.12695     610.3984     617.7448   1425.12695     610.3984     617.7448
   1425.11169     611.1042     617.1481   1425.11169     611.1042     617.1481
   1425.09644     611.2852     617.1911   1425.09644     611.2852     617.1911
   1425.08118     611.7648     618.3683   1425.08118     611.7648     618.3683
   1425.06592     612.1634     617.2965   1425.06592     612.1634     617.2965
   1425.05066     612.1565     617.4467   1425.05066     612.1565     617.4467
   1425.03540     612.6074     618.9616   1425.03540     612.6074     618.9616
   1425.02014     613.0377     619.3357   1425.02014     613.0377     619.3357
   1425.00488     613.6711     619.3306   1425.00488     613.6711     619.3306
   1424.98962     613.9197     617.8347   1424.98962     613.9197     617.8347
   1424.97437     613.4278     618.5723   1424.97437     613.4278     618.5723
   1424.95911     614.7797     617.9859   1424.95911     614.7797     617.9859
   1424.94385     615.2667     618.6778   1424.94385     615.2667     618.6778
   1424.92859     615.3028     619.7249   1424.92859     615.3028     619.7249
   1424.91333     616.2534     619.2874   1424.91333     616.2534     619.2874
   1424.89807     616.9929     618.4691   1424.89807     616.9929     618.4691
   1424.88281     615.3088     618.6812   1424.88281     615.3088     618.6812
   1424.86755     617.1442     619.4792   1424.86755     617.1442     619.4792
   1424.85229     616.6408     618.7471   1424.85229     616.6408     618.7471
   1424.83704     616.8194     619.5669   1424.83704     616.8194     619.5669
   1424.82178     616.8430     619.0775   1424.82178     616.8430     619.0775
   1424.80652     616.3839     619.4528   1424.80652     616.3839     619.4528
   1424.79126     617.0968     619.1033   1424.79126     617.0968     619.1033
   1424.77600     616.7291     618.5466   1424.77600     616.7291     618.5466
   1424.76074     617.1851     618.6500   1424.76074     617.1851     618.6500
   1424.74548     617.6495     618.3124   1424.74548     617.6495     618.3124
   1424.73022     618.0712     619.0997   1424.73022     618.0712     619.0997
   1424.71497     616.6506     618.2114   1424.71497     616.6506     618.2114
   1424.69971     617.3763     618.4551   1424.69971     617.3763     618.4551
   1424.68445     617.2511     619.6431   1424.68445     617.2511     619.6431
   1424.66919     617.1790     617.7101   1424.66919     617.1790     617.7101
   1424.65393     617.4038     617.6935   1424.65393     617.4038     617.6935
   1424.63867     617.8366     618.6461   1424.63867     617.8366     618.6461
   1424.62341     616.9031     617.7891   1424.62341     616.9031     617.7891
   1424.60815     616.3953     618.4751   1424.60815     616.3953     618.4751
   1424.59290     617.1703     617.1957   1424.59290     617.1703     617.1957
   1424.57764     616.6794     618.2116   1424.57764     616.6794     618.2116
   1424.56238     615.8272     617.1539   1424.56238     615.8272     617.1539
   1424.54712     616.5742     617.2652   1424.54712     616.5742     617.2652
   1424.53186     615.6108     616.8020   1424.53186     615.6108     616.8020
   1424.51660     615.4774     617.6115   1424.51660     615.4774     617.6115
   1424.50134     615.7605     617.2939   1424.50134     615.7605     617.2939
   1424.48608     615.7650     617.0009   1424.48608     615.7650     617.0009
   1424.47083     615.4289     616.7683   1424.47083     615.4289     616.7683
   1424.45557     615.4944     615.8404   1424.45557     615.4944     615.8404
   1424.44031     615.5081     616.9819   1424.44031     615.5081     616.9819
   1424.42505     614.6913     615.6591   1424.42505     614.6913     615.6591
   1424.40979     615.5809     616.2198   1424.40979     615.5809     616.2198
   1424.39453     615.4965     615.9619   1424.39453     615.4965     615.9619
   1424.37927     614.5718     614.7581   1424.37927     614.5718     614.7581
   1424.36401     614.0895     614.6842   1424.36401     614.0895     614.6842
   1424.34875     613.7869     614.8179   1424.34875     613.7869     614.8179
   1424.33350     613.0276     615.1888   1424.33350     613.0276     615.1888
   1424.31824     612.2997     615.6065   1424.31824     612.2997     615.6065
   1424.30298     613.0385     614.7210   1424.30298     613.0385     614.7210
   1424.28772     612.2098     614.7670   1424.28772     612.2098     614.7670
   1424.27246     612.1656     613.9376   1424.27246     612.1656     613.9376
   1424.25720     612.0756     613.6599   1424.25720     612.0756     613.6599
   1424.24194     612.7230     613.2139   1424.24194     612.7230     613.2139
   1424.22668     610.2549     612.9911   1424.22668     610.2549     612.9911
   1424.21143     609.7059     612.7168   1424.21143     609.7059     612.7168
   1424.19617     610.8174     613.5446   1424.19617     610.8174     613.5446
   1424.18091     610.0190     611.9405   1424.18091     610.0190     611.9405
   1424.16565     609.8157     612.5597   1424.16565     609.8157     612.5597
   1424.15039     609.3251     610.9186   1424.15039     609.3251     610.9186
   1424.13513     609.2725     610.3994   1424.13513     609.2725     610.3994
   1424.11987     608.9755     611.3427   1424.11987     608.9755     611.3427
   1424.10461     608.7394     610.4466   1424.10461     608.7394     610.4466
   1424.08936     608.1751     610.3054   1424.08936     608.1751     610.3054
   1424.07410     607.3091     610.3327   1424.07410     607.3091     610.3327
   1424.05884     607.0512     610.4941   1424.05884     607.0512     610.4941
   1424.04358     607.2014     610.2696   1424.04358     607.2014     610.2696
   1424.02832     606.2570     610.0197   1424.02832     606.2570     610.0197
   1424.01306     606.8923     608.3616   1424.01306     606.8923     608.3616
   1423.99780     605.3632     609.4630   1423.99780     605.3632     609.4630
   1423.98254     605.6008     608.2465   1423.98254     605.6008     608.2465
   1423.96729     604.7711     607.7223   1423.96729     604.7711     607.7223
   1423.95203     604.7047     607.4982   1423.95203     604.7047     607.4982
   1423.93677     604.2253     607.6003   1423.93677     604.2253     607.6003
   1423.92151     603.8710     607.6583   1423.92151     603.8710     607.6583
   1423.90625     602.3155     606.6860   1423.90625     602.3155     606.6860
   1423.89099     602.4991     605.7221   1423.89099     602.4991     605.7221
   1423.87573     602.5875     605.5542   1423.87573     602.5875     605.5542
   1423.86047     602.3926     606.3441   1423.86047     602.3926     606.3441
   1423.84521     600.5721     605.8688   1423.84521     600.5721     605.8688
   1423.82996     600.7859     604.5782   1423.82996     600.7859     604.5782
   1423.81470     601.3658     604.1631   1423.81470     601.3658     604.1631
   1423.79944     600.1337     603.5099   1423.79944     600.1337     603.5099
   1423.78418     599.0449     603.7953   1423.78418     599.0449     603.7953
   1423.76892     599.5776     603.2410   1423.76892     599.5776     603.2410
   1423.75366     598.3215     602.4641   1423.75366     598.3215     602.4641
   1423.73840     599.3336     602.6768   1423.73840     599.3336     602.6768
   1423.72314     598.2070     602.0289   1423.72314     598.2070     602.0289
   1423.70789     597.8068     601.8790   1423.70789     597.8068     601.8790
   1423.69263     596.9384     600.3928   1423.69263     596.9384     600.3928
   1423.67737     597.7036     601.4550   1423.67737     597.7036     601.4550
   1423.66211     596.7075     601.2756   1423.66211     596.7075     601.2756
   1423.64685     596.7402     599.4753   1423.64685     596.7402     599.4753
   1423.63159     595.5874     599.1132   1423.63159     595.5874     599.1132
   1423.61633     594.9807     599.7605   1423.61633     594.9807     599.7605
   1423.60107     594.6138     598.4171   1423.60107     594.6138     598.4171
   1423.58582     593.9742     597.3798   1423.58582     593.9742     597.3798
   1423.57056     594.2026     596.8972   1423.57056     594.2026     596.8972
   1423.55530     592.6802     596.8550   1423.55530     592.6802     596.8550
   1423.54004     592.8356     597.2742   1423.54004     592.8356     597.2742
   1423.52478     592.4659     595.2210   1423.52478     592.4659     595.2210
   1423.50952     592.8321     596.4553   1423.50952     592.8321     596.4553
   1423.49426     592.2786     595.4914   1423.49426     592.2786     595.4914
   1423.47900     592.2128     594.7363   1423.47900     592.2128     594.7363
   1423.46375     591.3371     594.4865   1423.46375     591.3371     594.4865
   1423.44849     589.9541     592.7158   1423.44849     589.9541     592.7158
   1423.43323     590.7347     593.0887   1423.43323     590.7347     593.0887
   1423.41797     590.0762     592.5344   1423.41797     590.0762     592.5344
   1423.40271     590.8901     591.8362   1423.40271     590.8901     591.8362
   1423.38745     589.2394     591.6516   1423.38745     589.2394     591.6516
   1423.37219     589.1824     591.1420   1423.37219     589.1824     591.1420
   1423.35693     588.3763     591.0127   1423.35693     588.3763     591.0127
   1423.34167     588.1139     591.2128   1423.34167     588.1139     591.2128
   1423.32642     587.7791     589.7810   1423.32642     587.7791     589.7810
   1423.31116     587.5608     588.9218   1423.31116     587.5608     588.9218
   1423.29590     586.5607     588.1847   1423.29590     586.5607     588.1847
   1423.28064     586.2567     588.3320   1423.28064     586.2567     588.3320
   1423.26538     586.3369     586.9683   1423.26538     586.3369     586.9683
   1423.25012     586.3273     586.9940   1423.25012     586.3273     586.9940
   1423.23486     586.1317     586.0676   1423.23486     586.1317     586.0676
   1423.21960     585.8833     586.4727   1423.21960     585.8833     586.4727
   1423.20435     585.0292     584.2613   1423.20435     585.0292     584.2613
   1423.18909     584.7578     584.2417   1423.18909     584.7578     584.2417
   1423.17383     583.7310     584.0165   1423.17383     583.7310     584.0165
   1423.15857     583.6871     583.3117   1423.15857     583.6871     583.3117
   1423.14331     583.6212     582.8458   1423.14331     583.6212     582.8458
   1423.12805     583.6458     581.4355   1423.12805     583.6458     581.4355
   1423.11279     583.4883     580.9354   1423.11279     583.4883     580.9354
   1423.09753     583.5212     579.9911   1423.09753     583.5212     579.9911
   1423.08228     582.1932     579.7188   1423.08228     582.1932     579.7188
   1423.06702     581.9175     578.6445   1423.06702     581.9175     578.6445
   1423.05176     582.8913     578.9698   1423.05176     582.8913     578.9698
   1423.03650     582.2389     579.1176   1423.03650     582.2389     579.1176
   1423.02124     580.7202     576.6665   1423.02124     580.7202     576.6665
   1423.00598     581.1461     576.4973   1423.00598     581.1461     576.4973
   1422.99072     580.4019     575.1990   1422.99072     580.4019     575.1990
   1422.97546     579.9106     574.6573   1422.97546     579.9106     574.6573
   1422.96021     580.0233     574.8242   1422.96021     580.0233     574.8242
   1422.94495     580.1844     573.9028   1422.94495     580.1844     573.9028
   1422.92969     579.8239     573.0313   1422.92969     579.8239     573.0313
   1422.91443     579.2300     572.7496   1422.91443     579.2300     572.7496
   1422.89917     579.4927     571.0849   1422.89917     579.4927     571.0849
   1422.88391     578.5918     571.5108   1422.88391     578.5918     571.5108
   1422.86865     579.1939     570.1776   1422.86865     579.1939     570.1776
   1422.85339     578.5804     569.4185   1422.85339     578.5804     569.4185
   1422.83813     578.2162     568.7747   1422.83813     578.2162     568.7747
   1422.82288     577.4753     568.2777   1422.82288     577.4753     568.2777
   1422.80762     578.1907     567.0428   1422.80762     578.1907     567.0428
   1422.79236     577.8326     566.6818   1422.79236     577.8326     566.6818
   1422.77710     577.7057     565.6379   1422.77710     577.7057     565.6379
   1422.76184     576.9211     564.6891   1422.76184     576.9211     564.6891
   1422.74658     577.3800     564.3311   1422.74658     577.3800     564.3311
   1422.73132     576.4997     564.3922   1422.73132     576.4997     564.3922
   1422.71606     575.8154     563.0350   1422.71606     575.8154     563.0350
   1422.70081     576.2058     561.5229   1422.70081     576.2058     561.5229
   1422.68555     575.6049     561.7073   1422.68555     575.6049     561.7073
   1422.67029     576.0759     560.8706   1422.67029     576.0759     560.8706
   1422.65503     576.0377     559.4617   1422.65503     576.0377     559.4617
   1422.63977     575.5057     558.6205   1422.63977     575.5057     558.6205
   1422.62451     575.3205     557.8770   1422.62451     575.3205     557.8770
   1422.60925     575.9448     556.4667   1422.60925     575.9448     556.4667
   1422.59399     575.1222     556.2772   1422.59399     575.1222     556.2772
   1422.57874     574.7897     556.3233   1422.57874     574.7897     556.3233
   1422.56348     574.2388     554.3395   1422.56348     574.2388     554.3395
   1422.54822     574.9953     554.3724   1422.54822     574.9953     554.3724
   1422.53296     574.2929     554.1847   1422.53296     574.2929     554.1847
   1422.51770     574.8290     552.2763   1422.51770     574.8290     552.2763
   1422.50244     573.6034     550.6492   1422.50244     573.6034     550.6492
   1422.48718     573.4484     549.9919   1422.48718     573.4484     549.9919
   1422.47192     572.9385     550.3217   1422.47192     572.9385     550.3217
   1422.45667     573.7881     549.1546   1422.45667     573.7881     549.1546
   1422.44141     573.2321     548.1809   1422.44141     573.2321     548.1809
   1422.42615     573.7892     547.6292   1422.42615     573.7892     547.6292
   1422.41089     573.0218     546.6008   1422.41089     573.0218     546.6008
   1422.39563     573.7731     545.4717   1422.39563     573.7731     545.4717
   1422.38037     572.8503     544.6074   1422.38037     572.8503     544.6074
   1422.36511     572.2449     543.8077   1422.36511     572.2449     543.8077
   1422.34985     573.3903     542.7953   1422.34985     573.3903     542.7953
   1422.33459     571.7884     542.1462   1422.33459     571.7884     542.1462
   1422.31934     572.2509     541.5134   1422.31934     572.2509     541.5134
   1422.30408     572.3204     539.9979   1422.30408     572.3204     539.9979
   1422.28882     573.2485     539.1743   1422.28882     573.2485     539.1743
   1422.27356     572.4727     538.6376   1422.27356     572.4727     538.6376
   1422.25830     572.5632     537.8286   1422.25830     572.5632     537.8286
   1422.24304     572.8902     536.7748   1422.24304     572.8902     536.7748
   1422.22778     573.0243     535.8071   1422.22778     573.0243     535.8071
   1422.21252     572.4954     534.7214   1422.21252     572.4954     534.7214
   1422.19727     572.0525     534.0560   1422.19727     572.0525     534.0560
   1422.18201     571.4194     533.1257   1422.18201     571.4194     533.1257
   1422.16675     571.9667     531.8986   1422.16675     571.9667     531.8986
   1422.15149     571.8321     531.1843   1422.15149     571.8321     531.1843
   1422.13623     571.3599     531.2040   1422.13623     571.3599     531.2040
   1422.12097     572.5247     529.8085   1422.12097     572.5247     529.8085
   1422.10571     572.2593     528.7813   1422.10571     572.2593     528.7813
   1422.09045     572.1553     527.9005   1422.09045     572.1553     527.9005
   1422.07520     571.6234     526.5267   1422.07520     571.6234     526.5267
   1422.05994     571.1938     525.7475   1422.05994     571.1938     525.7475
   1422.04468     571.7940     524.3684   1422.04468     571.7940     524.3684
   1422.02942     572.1149     523.9113   1422.02942     572.1149     523.9113
   1422.01416     571.0967     522.2903   1422.01416     571.0967     522.2903
   1421.99890     571.7368     521.5344   1421.99890     571.7368     521.5344
   1421.98364     571.0727     521.6027   1421.98364     571.0727     521.6027
   1421.96838     572.1619     520.2395   1421.96838     572.1619     520.2395
   1421.95312     572.0373     519.2532   1421.95312     572.0373     519.2532
   1421.93787     571.3378     518.3135   1421.93787     571.3378     518.3135
   1421.92261     571.4914     517.1414   1421.92261     571.4914     517.1414
   1421.90735     571.1461     516.5526   1421.90735     571.1461     516.5526
   1421.89209     570.9040     516.0577   1421.89209     570.9040     516.0577
   1421.87683     571.4830     514.3776   1421.87683     571.4830     514.3776
   1421.86157     570.0305     512.7562   1421.86157     570.0305     512.7562
   1421.84631     570.0749     512.1634   1421.84631     570.0749     512.1634
   1421.83105     570.4367     511.4339   1421.83105     570.4367     511.4339
   1421.81580     570.3639     510.2813   1421.81580     570.3639     510.2813
   1421.80054     570.3271     509.1037   1421.80054     570.3271     509.1037
   1421.78528     570.4988     509.1125   1421.78528     570.4988     509.1125
   1421.77002     570.6248     507.3837   1421.77002     570.6248     507.3837
   1421.75476     570.6210     507.3223   1421.75476     570.6210     507.3223
   1421.73950     570.1917     505.7733   1421.73950     570.1917     505.7733
   1421.72424     569.9568     504.6562   1421.72424     569.9568     504.6562
   1421.70898     569.8834     502.8755   1421.70898     569.8834     502.8755
   1421.69373     570.9425     502.1459   1421.69373     570.9425     502.1459
   1421.67847     570.8796     501.3279   1421.67847     570.8796     501.3279
   1421.66321     571.5056     499.6754   1421.66321     571.5056     499.6754
   1421.64795     570.4771     499.4067   1421.64795     570.4771     499.4067
   1421.63269     570.0226     498.2824   1421.63269     570.0226     498.2824
   1421.61743     570.5921     497.6040   1421.61743     570.5921     497.6040
   1421.60217     570.1652     495.6981   1421.60217     570.1652     495.6981
   1421.58691     570.0347     495.6023   1421.58691     570.0347     495.6023
   1421.57166     570.1913     494.4615   1421.57166     570.1913     494.4615
   1421.55640     569.3538     493.0807   1421.55640     569.3538     493.0807
   1421.54114     569.8286     492.2351   1421.54114     569.8286     492.2351
   1421.52588     569.7515     491.1734   1421.52588     569.7515     491.1734
   1421.51062     569.4183     490.2595   1421.51062     569.4183     490.2595
   1421.49536     569.4935     489.5048   1421.49536     569.4935     489.5048
   1421.48010     569.5760     489.1508   1421.48010     569.5760     489.1508
   1421.46484     569.2407     487.7472   1421.46484     569.2407     487.7472
   1421.44958     568.9780     486.6982   1421.44958     568.9780     486.6982
   1421.43433     568.5389     485.3821   1421.43433     568.5389     485.3821
   1421.41907     568.7762     483.4341   1421.41907     568.7762     483.4341
   1421.40381     569.6811     484.3553   1421.40381     569.6811     484.3553
   1421.38855     568.4368     482.5882   1421.38855     568.4368     482.5882
   1421.37329     568.4932     481.8281   1421.37329     568.4932     481.8281
   1421.35803     569.6329     479.5999   1421.35803     569.6329     479.5999
   1421.34277     569.2689     480.5510   1421.34277     569.2689     480.5510
   1421.32751     567.7651     478.6343   1421.32751     567.7651     478.6343
   1421.31226     568.4974     477.0148   1421.31226     568.4974     477.0148
   1421.29700     568.2885     476.0976   1421.29700     568.2885     476.0976
   1421.28174     568.8043     475.8661   1421.28174     568.8043     475.8661
   1421.26648     568.2446     474.4819   1421.26648     568.2446     474.4819
   1421.25122     567.9682     473.6705   1421.25122     567.9682     473.6705
   1421.23596     567.8452     472.9845   1421.23596     567.8452     472.9845
   1421.22070     567.3997     471.8262   1421.22070     567.3997     471.8262
   1421.20544     566.6799     470.6605   1421.20544     566.6799     470.6605
   1421.19019     566.6559     469.6275   1421.19019     566.6559     469.6275
   1421.17493     567.1478     468.6368   1421.17493     567.1478     468.6368
   1421.15967     567.0724     467.5235   1421.15967     567.0724     467.5235
   1421.14441     568.4931     467.2195   1421.14441     568.4931     467.2195
   1421.12915     567.8029     466.0738   1421.12915     567.8029     466.0738
   1421.11389     568.0464     465.1670   1421.11389     568.0464     465.1670
   1421.09863     569.1851     464.2477   1421.09863     569.1851     464.2477
   1421.08337     568.1693     463.7571   1421.08337     568.1693     463.7571
   1421.06812     569.1628     463.7277   1421.06812     569.1628     463.7277
   1421.05286     570.3183     463.4461   1421.05286     570.3183     463.4461
   1421.03760     569.9647     462.1092   1421.03760     569.9647     462.1092
   1421.02234     570.9040     462.4801   1421.02234     570.9040     462.4801
   1421.00708     570.6676     461.4651   1421.00708     570.6676     461.4651
   1420.99182     571.0911     460.9775   1420.99182     571.0911     460.9775
   1420.97656     571.1145     460.7450   1420.97656     571.1145     460.7450
   1420.96130     570.6763     459.0126   1420.96130     570.6763     459.0126
   1420.94604     570.4827     457.9489   1420.94604     570.4827     457.9489
   1420.93079     570.1968     456.8980   1420.93079     570.1968     456.8980
   1420.91553     571.7473     456.5319   1420.91553     571.7473     456.5319
   1420.90027     572.4844     456.6953   1420.90027     572.4844     456.6953
   1420.88501     572.7484     456.0152   1420.88501     572.7484     456.0152
   1420.86975     573.2926     455.7714   1420.86975     573.2926     455.7714
   1420.85449     574.7437     455.8671   1420.85449     574.7437     455.8671
   1420.83923     576.1024     455.1350   1420.83923     576.1024     455.1350
   1420.82397     576.9948     456.5343   1420.82397     576.9948     456.5343
   1420.80872     579.8111     456.6411   1420.80872     579.8111     456.6411
   1420.79346     586.3281     460.6902   1420.79346     586.3281     460.6902
   1420.77820     603.6292     473.1370   1420.77820     603.6292     473.1370
   1420.76294     613.6169     480.3933   1420.76294     613.6169     480.3933
   1420.74768     614.9064     480.4124   1420.74768     614.9064     480.4124
   1420.73242     626.2104     488.0811   1420.73242     626.2104     488.0811
   1420.71716     641.9196     498.8002   1420.71716     641.9196     498.8002
   1420.70190     654.2007     507.8638   1420.70190     654.2007     507.8638
   1420.68665     675.9020     521.6829   1420.68665     675.9020     521.6829
   1420.67139     724.6860     558.2905   1420.67139     724.6860     558.2905
   1420.65613     821.8524     630.3836   1420.65613     821.8524     630.3836
   1420.64087     979.9354     751.0518   1420.64087     979.9354     751.0518
   1420.62561    1237.2366     942.9969   1420.62561    1237.2366     942.9969
   1420.61035    1561.3740    1179.4706   1420.61035    1561.3740    1179.4706
   1420.59509    1680.5083    1264.7886   1420.59509    1680.5083    1264.7886
   1420.57983    1668.5244    1254.3044   1420.57983    1668.5244    1254.3044
   1420.56458    1602.2759    1206.9043   1420.56458    1602.2759    1206.9043
   1420.54932    1729.9773    1297.2340   1420.54932    1729.9773    1297.2340
   1420.53406    1964.7162    1469.2981   1420.53406    1964.7162    1469.2981
   1420.51880    2063.7891    1544.2623   1420.51880    2063.7891    1544.2623
   1420.50354    1960.8040    1464.7668   1420.50354    1960.8040    1464.7668
   1420.48828    1779.9843    1330.0435   1420.48828    1779.9843    1330.0435
   1420.47302    1674.0358    1250.1348   1420.47302    1674.0358    1250.1348
   1420.45776    1596.8455    1189.7776   1420.45776    1596.8455    1189.7776
   1420.44250    1493.4633    1114.1566   1420.44250    1493.4633    1114.1566
   1420.42725    1396.2886    1037.0990   1420.42725    1396.2886    1037.0990
   1420.41199    1410.6765    1048.1406   1420.41199    1410.6765    1048.1406
   1420.39673    1489.7059    1101.6783   1420.39673    1489.7059    1101.6783
   1420.38147    1370.2323    1012.6917   1420.38147    1370.2323    1012.6917
   1420.36621    1126.1260     834.2118   1420.36621    1126.1260     834.2118
   1420.35095    1057.3280     782.6573   1420.35095    1057.3280     782.6573
   1420.33569     824.7029     610.3320   1420.33569     824.7029     610.3320
   1420.32043     676.6821     501.9385   1420.32043     676.6821     501.9385
   1420.30518     630.6140     467.5469   1420.30518     630.6140     467.5469
   1420.28992     606.0462     449.2004   1420.28992     606.0462     449.2004
   1420.27466     593.0574     437.9862   1420.27466     593.0574     437.9862
   1420.25940     583.9596     432.4604   1420.25940     583.9596     432.4604
   1420.24414     579.7286     427.4310   1420.24414     579.7286     427.4310
   1420.22888     574.6077     423.7301   1420.22888     574.6077     423.7301
   1420.21362     570.7051     419.7627   1420.21362     570.7051     419.7627
   1420.19836     567.8809     417.0170   1420.19836     567.8809     417.0170
   1420.18311     565.8087     414.3394   1420.18311     565.8087     414.3394
   1420.16785     563.6234     413.3329   1420.16785     563.6234     413.3329
   1420.15259     563.0165     412.4946   1420.15259     563.0165     412.4946
   1420.13733     561.4382     411.0710   1420.13733     561.4382     411.0710
   1420.12207     560.5286     409.7834   1420.12207     560.5286     409.7834
   1420.10681     560.0328     408.4603   1420.10681     560.0328     408.4603
   1420.09155     559.0969     407.6051   1420.09155     559.0969     407.6051
   1420.07629     559.2829     407.1517   1420.07629     559.2829     407.1517
   1420.06104     559.3882     405.1009   1420.06104     559.3882     405.1009
   1420.04578     558.7622     404.6757   1420.04578     558.7622     404.6757
   1420.03052     558.7110     404.2990   1420.03052     558.7110     404.2990
   1420.01526     558.9529     404.8289   1420.01526     558.9529     404.8289
   1420.00000     559.8004     404.9945   1420.00000     559.8004     404.9945
   1419.98474     560.6481     405.1599   1419.98474     560.6481     405.1599
   1419.96948     560.8373     402.6018   1419.96948     560.8373     402.6018
   1419.95422     557.7994     400.0840   1419.95422     557.7994     400.0840
   1419.93896     558.2731     400.2846   1419.93896     558.2731     400.2846
   1419.92371     558.4745     399.8124   1419.92371     558.4745     399.8124
   1419.90845     557.3020     399.7796   1419.90845     557.3020     399.7796
   1419.89319     557.9301     399.0069   1419.89319     557.9301     399.0069
   1419.87793     558.0710     397.9189   1419.87793     558.0710     397.9189
   1419.86267     557.9921     398.0136   1419.86267     557.9921     398.0136
   1419.84741     558.0748     396.8901   1419.84741     558.0748     396.8901
   1419.83215     558.0175     396.8729   1419.83215     558.0175     396.8729
   1419.81689     557.0144     396.0887   1419.81689     557.0144     396.0887
   1419.80164     557.9874     396.1990   1419.80164     557.9874     396.1990
   1419.78638     557.9548     395.2910   1419.78638     557.9548     395.2910
   1419.77112     557.4652     395.1748   1419.77112     557.4652     395.1748
   1419.75586     558.5999     394.7129   1419.75586     558.5999     394.7129
   1419.74060     558.4703     394.3592   1419.74060     558.4703     394.3592
   1419.72534     557.9366     393.6868   1419.72534     557.9366     393.6868
   1419.71008     559.6219     393.5964   1419.71008     559.6219     393.5964
   1419.69482     559.1405     393.1818   1419.69482     559.1405     393.1818
   1419.67957     559.0178     392.7308   1419.67957     559.0178     392.7308
   1419.66431     558.0969     392.2874   1419.66431     558.0969     392.2874
   1419.64905     559.1213     392.1671   1419.64905     559.1213     392.1671
   1419.63379     559.7939     391.5545   1419.63379     559.7939     391.5545
   1419.61853     558.7205     391.5088   1419.61853     558.7205     391.5088
   1419.60327     559.7415     391.2468   1419.60327     559.7415     391.2468
   1419.58801     559.3241     390.4039   1419.58801     559.3241     390.4039
   1419.57275     560.3688     390.9315   1419.57275     560.3688     390.9315
   1419.55750     560.0275     390.0876   1419.55750     560.0275     390.0876
   1419.54224     560.7210     389.6113   1419.54224     560.7210     389.6113
   1419.52698     560.6705     390.1681   1419.52698     560.6705     390.1681
   1419.51172     560.2512     389.7578   1419.51172     560.2512     389.7578
   1419.49646     561.3063     389.4114   1419.49646     561.3063     389.4114
   1419.48120     561.2455     389.1784   1419.48120     561.2455     389.1784
   1419.46594     561.0322     389.6603   1419.46594     561.0322     389.6603
   1419.45068     561.8946     389.3201   1419.45068     561.8946     389.3201
   1419.43542     561.9468     388.1349   1419.43542     561.9468     388.1349
   1419.42017     561.8746     387.8146   1419.42017     561.8746     387.8146
   1419.40491     561.5132     387.7446   1419.40491     561.5132     387.7446
   1419.38965     562.0551     388.7389   1419.38965     562.0551     388.7389
   1419.37439     562.8909     388.0976   1419.37439     562.8909     388.0976
   1419.35913     561.9658     387.6320   1419.35913     561.9658     387.6320
   1419.34387     562.5496     387.2282   1419.34387     562.5496     387.2282
   1419.32861     563.1432     387.4376   1419.32861     563.1432     387.4376
   1419.31335     563.0181     387.7234   1419.31335     563.0181     387.7234
   1419.29810     563.1507     387.0555   1419.29810     563.1507     387.0555
   1419.28284     563.9818     387.0363   1419.28284     563.9818     387.0363
   1419.26758     564.6891     387.3752   1419.26758     564.6891     387.3752
   1419.25232     564.8158     387.1874   1419.25232     564.8158     387.1874
   1419.23706     564.8699     387.3517   1419.23706     564.8699     387.3517
   1419.22180     565.4516     387.1846   1419.22180     565.4516     387.1846
   1419.20654     565.6970     386.9554   1419.20654     565.6970     386.9554
   1419.19128     566.4771     386.1384   1419.19128     566.4771     386.1384
   1419.17603     565.9875     386.8339   1419.17603     565.9875     386.8339
   1419.16077     566.6066     387.0832   1419.16077     566.6066     387.0832
   1419.14551     566.8270     387.5107   1419.14551     566.8270     387.5107
   1419.13025     566.9383     386.9552   1419.13025     566.9383     386.9552
   1419.11499     567.5427     387.3173   1419.11499     567.5427     387.3173
   1419.09973     568.1149     387.3627   1419.09973     568.1149     387.3627
   1419.08447     567.7352     387.3728   1419.08447     567.7352     387.3728
   1419.06921     567.8299     387.7888   1419.06921     567.8299     387.7888
   1419.05396     569.3988     387.4350   1419.05396     569.3988     387.4350
   1419.03870     569.0614     388.1333   1419.03870     569.0614     388.1333
   1419.02344     569.5846     388.0493   1419.02344     569.5846     388.0493
   1419.00818     569.2456     387.7099   1419.00818     569.2456     387.7099
   1418.99292     570.9096     387.7422   1418.99292     570.9096     387.7422
   1418.97766     570.1190     388.2950   1418.97766     570.1190     388.2950
   1418.96240     571.3255     388.6174   1418.96240     571.3255     388.6174
   1418.94714     571.6136     388.3894   1418.94714     571.6136     388.3894
   1418.93188     571.6124     388.1609   1418.93188     571.6124     388.1609
   1418.91663     572.0112     388.8367   1418.91663     572.0112     388.8367
   1418.90137     572.9249     388.6930   1418.90137     572.9249     388.6930
   1418.88611     572.3182     389.5067   1418.88611     572.3182     389.5067
   1418.87085     573.6853     389.8521   1418.87085     573.6853     389.8521
   1418.85559     573.6478     389.1903   1418.85559     573.6478     389.1903
   1418.84033     573.5955     389.9546   1418.84033     573.5955     389.9546
   1418.82507     575.0599     389.7710   1418.82507     575.0599     389.7710
   1418.80981     575.2309     390.6559   1418.80981     575.2309     390.6559
   1418.79456     575.9449     390.4458   1418.79456     575.9449     390.4458
   1418.77930     576.1266     390.7500   1418.77930     576.1266     390.7500
   1418.76404     577.5283     391.0608   1418.76404     577.5283     391.0608
   1418.74878     577.5037     391.2986   1418.74878     577.5037     391.2986
   1418.73352     576.9667     392.0929   1418.73352     576.9667     392.0929
   1418.71826     578.6465     392.5775   1418.71826     578.6465     392.5775
   1418.70300     578.0612     392.5616   1418.70300     578.0612     392.5616
   1418.68774     578.7261     393.1623   1418.68774     578.7261     393.1623
   1418.67249     579.1024     393.1532   1418.67249     579.1024     393.1532
   1418.65723     579.8681     393.4886   1418.65723     579.8681     393.4886
   1418.64197     580.9762     393.1915   1418.64197     580.9762     393.1915
   1418.62671     581.4712     394.9955   1418.62671     581.4712     394.9955
   1418.61145     582.2204     394.8546   1418.61145     582.2204     394.8546
   1418.59619     581.2944     395.1175   1418.59619     581.2944     395.1175
   1418.58093     583.1991     396.2682   1418.58093     583.1991     396.2682
   1418.56567     583.1892     395.7203   1418.56567     583.1892     395.7203
   1418.55042     583.9659     396.0528   1418.55042     583.9659     396.0528
   1418.53516     584.1425     397.2615   1418.53516     584.1425     397.2615
   1418.51990     584.9400     397.0892   1418.51990     584.9400     397.0892
   1418.50464     585.4623     397.3327   1418.50464     585.4623     397.3327
   1418.48938     586.0678     397.7162   1418.48938     586.0678     397.7162
   1418.47412     586.8966     398.8759   1418.47412     586.8966     398.8759
   1418.45886     586.6935     398.8168   1418.45886     586.6935     398.8168
   1418.44360     588.0133     399.8939   1418.44360     588.0133     399.8939
   1418.42834     589.3900     400.1737   1418.42834     589.3900     400.1737
   1418.41309     589.1016     401.6004   1418.41309     589.1016     401.6004
   1418.39783     589.6296     401.3392   1418.39783     589.6296     401.3392
   1418.38257     590.6766     401.7007   1418.38257     590.6766     401.7007
   1418.36731     590.8295     401.8300   1418.36731     590.8295     401.8300
   1418.35205     590.7564     403.1153   1418.35205     590.7564     403.1153
   1418.33679     592.0143     403.4017   1418.33679     592.0143     403.4017
   1418.32153     592.3863     403.7126   1418.32153     592.3863     403.7126
   1418.30627     593.3425     405.1738   1418.30627     593.3425     405.1738
   1418.29102     593.7629     405.6826   1418.29102     593.7629     405.6826
   1418.27576     593.8500     405.9031   1418.27576     593.8500     405.9031
   1418.26050     594.5232     406.9578   1418.26050     594.5232     406.9578
   1418.24524     595.0461     408.4199   1418.24524     595.0461     408.4199
   1418.22998     596.5989     408.3399   1418.22998     596.5989     408.3399
   1418.21472     596.6953     408.5651   1418.21472     596.6953     408.5651
   1418.19946     597.3329     408.6114   1418.19946     597.3329     408.6114
   1418.18420     597.1657     410.8399   1418.18420     597.1657     410.8399
   1418.16895     598.8497     411.1413   1418.16895     598.8497     411.1413
   1418.15369     599.2511     411.6526   1418.15369     599.2511     411.6526
   1418.13843     600.7587     412.7758   1418.13843     600.7587     412.7758
   1418.12317     600.4148     413.2661   1418.12317     600.4148     413.2661
   1418.10791     600.4903     413.7827   1418.10791     600.4903     413.7827
   1418.09265     601.6125     415.1093   1418.09265     601.6125     415.1093
   1418.07739     602.6003     415.7614   1418.07739     602.6003     415.7614
   1418.06213     602.2919     415.9565   1418.06213     602.2919     415.9565
   1418.04688     604.5211     417.8546   1418.04688     604.5211     417.8546
   1418.03162     604.3757     417.6969   1418.03162     604.3757     417.6969
   1418.01636     605.5945     418.9845   1418.01636     605.5945     418.9845
   1418.00110     606.1616     419.3059   1418.00110     606.1616     419.3059
   1417.98584     605.7585     420.8465   1417.98584     605.7585     420.8465
   1417.97058     607.8920     420.5475   1417.97058     607.8920     420.5475
   1417.95532     608.0251     421.9677   1417.95532     608.0251     421.9677
   1417.94006     609.1547     422.9987   1417.94006     609.1547     422.9987
   1417.92480     609.4614     423.9627   1417.92480     609.4614     423.9627
   1417.90955     610.5004     424.8374   1417.90955     610.5004     424.8374
   1417.89429     610.8522     426.2875   1417.89429     610.8522     426.2875
   1417.87903     611.2653     425.9668   1417.87903     611.2653     425.9668
   1417.86377     611.9481     426.9915   1417.86377     611.9481     426.9915
   1417.84851     613.8007     428.7157   1417.84851     613.8007     428.7157
   1417.83325     613.5043     428.7953   1417.83325     613.5043     428.7953
   1417.81799     612.9885     430.3435   1417.81799     612.9885     430.3435
   1417.80273     615.2579     431.5258   1417.80273     615.2579     431.5258
   1417.78748     615.0372     432.2916   1417.78748     615.0372     432.2916
   1417.77222     615.7132     433.4476   1417.77222     615.7132     433.4476
   1417.75696     616.5573     434.6851   1417.75696     616.5573     434.6851
   1417.74170     617.4808     434.8807   1417.74170     617.4808     434.8807
   1417.72644     618.2083     436.4445   1417.72644     618.2083     436.4445
   1417.71118     619.2573     437.5470   1417.71118     619.2573     437.5470
   1417.69592     619.9919     438.0565   1417.69592     619.9919     438.0565
   1417.68066     620.5044     440.1677   1417.68066     620.5044     440.1677
   1417.66541     620.1882     439.9254   1417.66541     620.1882     439.9254
   1417.65015     622.8284     441.5671   1417.65015     622.8284     441.5671
   1417.63489     621.1698     442.2236   1417.63489     621.1698     442.2236
   1417.61963     622.5312     442.8690   1417.61963     622.5312     442.8690
   1417.60437     623.9147     444.0435   1417.60437     623.9147     444.0435
   1417.58911     623.8151     445.2277   1417.58911     623.8151     445.2277
   1417.57385     624.5369     446.2516   1417.57385     624.5369     446.2516
   1417.55859     625.1810     447.3654   1417.55859     625.1810     447.3654
   1417.54333     626.6714     448.9547   1417.54333     626.6714     448.9547
   1417.52808     627.1987     449.7181   1417.52808     627.1987     449.7181
   1417.51282     627.4227     450.6729   1417.51282     627.4227     450.6729
   1417.49756     627.9452     452.2474   1417.49756     627.9452     452.2474
   1417.48230     628.5259     452.6246   1417.48230     628.5259     452.6246
   1417.46704     628.9330     453.9254   1417.46704     628.9330     453.9254
   1417.45178     629.7590     455.2495   1417.45178     629.7590     455.2495
   1417.43652     630.7388     456.5129   1417.43652     630.7388     456.5129
   1417.42126     631.7727     457.3668   1417.42126     631.7727     457.3668
   1417.40601     631.3782     458.4382   1417.40601     631.3782     458.4382
   1417.39075     631.6357     459.8674   1417.39075     631.6357     459.8674
   1417.37549     633.1688     460.7505   1417.37549     633.1688     460.7505
   1417.36023     633.8218     462.0363   1417.36023     633.8218     462.0363
   1417.34497     634.3716     463.3105   1417.34497     634.3716     463.3105
   1417.32971     634.9555     464.4333   1417.32971     634.9555     464.4333
   1417.31445     635.5776     466.1975   1417.31445     635.5776     466.1975
   1417.29919     636.4900     466.8658   1417.29919     636.4900     466.8658
   1417.28394     636.8608     467.9625   1417.28394     636.8608     467.9625
   1417.26868     637.0126     468.2119   1417.26868     637.0126     468.2119
   1417.25342     637.5903     470.1229   1417.25342     637.5903     470.1229
   1417.23816     639.0400     471.3628   1417.23816     639.0400     471.3628
   1417.22290     638.4498     472.8544   1417.22290     638.4498     472.8544
   1417.20764     639.6168     473.6040   1417.20764     639.6168     473.6040
   1417.19238     639.4208     474.6961   1417.19238     639.4208     474.6961
   1417.17712     639.8674     475.7758   1417.17712     639.8674     475.7758
   1417.16187     641.0389     476.6953   1417.16187     641.0389     476.6953
   1417.14661     641.4623     477.4760   1417.14661     641.4623     477.4760
   1417.13135     641.4647     479.4030   1417.13135     641.4647     479.4030
   1417.11609     641.3565     479.9906   1417.11609     641.3565     479.9906
   1417.10083     642.3171     480.9384   1417.10083     642.3171     480.9384
   1417.08557     643.0701     483.2000   1417.08557     643.0701     483.2000
   1417.07031     642.0167     483.7005   1417.07031     642.0167     483.7005
   1417.05505     643.4521     485.5820   1417.05505     643.4521     485.5820
   1417.03979     644.7186     486.7109   1417.03979     644.7186     486.7109
   1417.02454     645.9143     487.5962   1417.02454     645.9143     487.5962
   1417.00928     644.7458     488.1503   1417.00928     644.7458     488.1503
   1416.99402     645.2553     490.1985   1416.99402     645.2553     490.1985
   1416.97876     644.8733     491.4995   1416.97876     644.8733     491.4995
   1416.96350     646.1020     491.8674   1416.96350     646.1020     491.8674
   1416.94824     647.1825     493.0718   1416.94824     647.1825     493.0718
   1416.93298     647.3873     494.1822   1416.93298     647.3873     494.1822
   1416.91772     647.1296     495.0475   1416.91772     647.1296     495.0475
   1416.90247     646.9355     496.1817   1416.90247     646.9355     496.1817
   1416.88721     648.0995     497.5654   1416.88721     648.0995     497.5654
   1416.87195     648.3245     498.0255   1416.87195     648.3245     498.0255
   1416.85669     648.6242     498.8951   1416.85669     648.6242     498.8951
   1416.84143     649.9102     499.7351   1416.84143     649.9102     499.7351
   1416.82617     648.8803     501.8886   1416.82617     648.8803     501.8886
   1416.81091     649.1105     502.7568   1416.81091     649.1105     502.7568
   1416.79565     650.4229     503.7677   1416.79565     650.4229     503.7677
   1416.78040     649.8478     503.8668   1416.78040     649.8478     503.8668
   1416.76514     649.9144     505.7574   1416.76514     649.9144     505.7574
   1416.74988     650.6035     506.7376   1416.74988     650.6035     506.7376
   1416.73462     650.7510     507.3046   1416.73462     650.7510     507.3046
   1416.71936     649.9950     508.9892   1416.71936     649.9950     508.9892
   1416.70410     651.0118     509.4591   1416.70410     651.0118     509.4591
   1416.68884     650.2088     510.3501   1416.68884     650.2088     510.3501
   1416.67358     649.3738     510.9867   1416.67358     649.3738     510.9867
   1416.65833     650.3557     512.0620   1416.65833     650.3557     512.0620
   1416.64307     650.5480     512.5160   1416.64307     650.5480     512.5160
   1416.62781     650.6693     514.1284   1416.62781     650.6693     514.1284
   1416.61255     651.8126     515.6280   1416.61255     651.8126     515.6280
   1416.59729     651.4185     515.7443   1416.59729     651.4185     515.7443
   1416.58203     650.6617     516.3317   1416.58203     650.6617     516.3317
   1416.56677     651.3141     517.5082   1416.56677     651.3141     517.5082
   1416.55151     652.1008     517.3900   1416.55151     652.1008     517.3900
   1416.53625     650.4501     518.2456   1416.53625     650.4501     518.2456
   1416.52100     651.1983     519.9208   1416.52100     651.1983     519.9208
   1416.50574     650.1884     519.5520   1416.50574     650.1884     519.5520
   1416.49048     650.6738     520.7836   1416.49048     650.6738     520.7836
   1416.47522     651.3953     520.9850   1416.47522     651.3953     520.9850
   1416.45996     651.5386     522.4461   1416.45996     651.5386     522.4461
   1416.44470     649.6475     522.8281   1416.44470     649.6475     522.8281
   1416.42944     650.8887     523.9860   1416.42944     650.8887     523.9860
   1416.41418     650.6931     524.6486   1416.41418     650.6931     524.6486
   1416.39893     649.6271     524.3505   1416.39893     649.6271     524.3505
   1416.38367     649.2620     525.7059   1416.38367     649.2620     525.7059
   1416.36841     650.2338     525.4614   1416.36841     650.2338     525.4614
   1416.35315     649.5212     526.3376   1416.35315     649.5212     526.3376
   1416.33789     649.0389     526.5814   1416.33789     649.0389     526.5814
   1416.32263     648.8840     526.6478   1416.32263     648.8840     526.6478
   1416.30737     648.1401     527.5589   1416.30737     648.1401     527.5589
   1416.29211     647.9324     528.3461   1416.29211     647.9324     528.3461
   1416.27686     647.9847     528.3179   1416.27686     647.9847     528.3179
   1416.26160     649.1520     529.7486   1416.26160     649.1520     529.7486
   1416.24634     648.3948     529.4511   1416.24634     648.3948     529.4511
   1416.23108     647.6347     529.5913   1416.23108     647.6347     529.5913
   1416.21582     647.8519     530.2852   1416.21582     647.8519     530.2852
   1416.20056     646.7204     530.4897   1416.20056     646.7204     530.4897
   1416.18530     646.6536     531.0781   1416.18530     646.6536     531.0781
   1416.17004     645.9824     530.9855   1416.17004     645.9824     530.9855
   1416.15479     645.6703     530.9116   1416.15479     645.6703     530.9116
   1416.13953     645.8311     531.4590   1416.13953     645.8311     531.4590
   1416.12427     644.9301     531.3816   1416.12427     644.9301     531.3816
   1416.10901     644.1855     532.3356   1416.10901     644.1855     532.3356
   1416.09375     644.2038     531.7866   1416.09375     644.2038     531.7866
   1416.07849     642.4895     533.2529   1416.07849     642.4895     533.2529
   1416.06323     643.6370     532.6319   1416.06323     643.6370     532.6319
   1416.04797     643.4677     532.4499   1416.04797     643.4677     532.4499
   1416.03271     641.2130     532.8232   1416.03271     641.2130     532.8232
   1416.01746     642.5128     533.0413   1416.01746     642.5128     533.0413
   1416.00220     641.0898     532.6960   1416.00220     641.0898     532.6960
   1415.98694     640.5513     533.3279   1415.98694     640.5513     533.3279
   1415.97168     639.9632     533.2131   1415.97168     639.9632     533.2131
   1415.95642     639.6165     533.2134   1415.95642     639.6165     533.2134
   1415.94116     639.1873     532.8131   1415.94116     639.1873     532.8131
   1415.92590     638.1237     533.4498   1415.92590     638.1237     533.4498
   1415.91064     637.0938     533.9106   1415.91064     637.0938     533.9106
   1415.89539     637.2825     533.5540   1415.89539     637.2825     533.5540
   1415.88013     637.1086     533.0955   1415.88013     637.1086     533.0955
   1415.86487     636.1045     533.0035   1415.86487     636.1045     533.0035
   1415.84961     635.9504     533.3249   1415.84961     635.9504     533.3249
   1415.83435     635.2778     533.7725   1415.83435     635.2778     533.7725
   1415.81909     632.9343     532.6341   1415.81909     632.9343     532.6341
   1415.80383     633.3946     533.4176   1415.80383     633.3946     533.4176
   1415.78857     632.9966     532.9878   1415.78857     632.9966     532.9878
   1415.77332     631.8693     532.7635   1415.77332     631.8693     532.7635
   1415.75806     631.9989     532.8801   1415.75806     631.9989     532.8801
   1415.74280     631.0179     533.8718   1415.74280     631.0179     533.8718
   1415.72754     631.1772     532.3859   1415.72754     631.1772     532.3859
   1415.71228     629.5928     532.3239   1415.71228     629.5928     532.3239
   1415.69702     628.9995     531.8726   1415.69702     628.9995     531.8726
   1415.68176     629.0489     531.6160   1415.68176     629.0489     531.6160
   1415.66650     627.6927     532.1694   1415.66650     627.6927     532.1694
   1415.65125     627.4571     531.6108   1415.65125     627.4571     531.6108
   1415.63599     625.8524     531.6534   1415.63599     625.8524     531.6534
   1415.62073     625.4523     530.5595   1415.62073     625.4523     530.5595
   1415.60547     624.4100     530.8519   1415.60547     624.4100     530.8519
   1415.59021     624.3350     530.8323   1415.59021     624.3350     530.8323
   1415.57495     623.5829     530.8307   1415.57495     623.5829     530.8307
   1415.55969     622.3053     530.1342   1415.55969     622.3053     530.1342
   1415.54443     621.1498     530.1278   1415.54443     621.1498     530.1278
   1415.52917     619.8913     529.1740   1415.52917     619.8913     529.1740
   1415.51392     619.3512     529.5094   1415.51392     619.3512     529.5094
   1415.49866     618.0196     529.2927   1415.49866     618.0196     529.2927
   1415.48340     618.5723     527.7800   1415.48340     618.5723     527.7800
   1415.46814     618.2091     528.3578   1415.46814     618.2091     528.3578
   1415.45288     616.5979     528.2883   1415.45288     616.5979     528.2883
   1415.43762     615.9417     527.1753   1415.43762     615.9417     527.1753
   1415.42236     614.6225     527.5573   1415.42236     614.6225     527.5573
   1415.40710     614.3171     527.2479   1415.40710     614.3171     527.2479
   1415.39185     612.6176     526.1505   1415.39185     612.6176     526.1505
   1415.37659     612.4921     526.3796   1415.37659     612.4921     526.3796
   1415.36133     611.5325     526.2767   1415.36133     611.5325     526.2767
   1415.34607     609.6924     525.4101   1415.34607     609.6924     525.4101
   1415.33081     609.3042     524.7796   1415.33081     609.3042     524.7796
   1415.31555     608.4393     524.4518   1415.31555     608.4393     524.4518
   1415.30029     607.1983     524.9342   1415.30029     607.1983     524.9342
   1415.28503     605.9440     523.3210   1415.28503     605.9440     523.3210
   1415.26978     605.9002     523.8268   1415.26978     605.9002     523.8268
   1415.25452     604.3467     521.8030   1415.25452     604.3467     521.8030
   1415.23926     603.0897     522.4612   1415.23926     603.0897     522.4612
   1415.22400     601.7596     522.0497   1415.22400     601.7596     522.0497
   1415.20874     601.5809     521.3185   1415.20874     601.5809     521.3185
   1415.19348     600.6210     519.9349   1415.19348     600.6210     519.9349
   1415.17822     599.8389     519.3603   1415.17822     599.8389     519.3603
   1415.16296     597.7081     518.5228   1415.16296     597.7081     518.5228
   1415.14771     596.4614     518.8276   1415.14771     596.4614     518.8276
   1415.13245     595.0648     517.8401   1415.13245     595.0648     517.8401
   1415.11719     595.2923     517.6857   1415.11719     595.2923     517.6857
   1415.10193     593.5024     517.0679   1415.10193     593.5024     517.0679
   1415.08667     592.6018     516.6492   1415.08667     592.6018     516.6492
   1415.07141     591.4876     515.7362   1415.07141     591.4876     515.7362
   1415.05615     589.5283     514.5604   1415.05615     589.5283     514.5604
   1415.04089     588.9705     514.4155   1415.04089     588.9705     514.4155
   1415.02563     588.0673     513.6025   1415.02563     588.0673     513.6025
   1415.01038     586.4229     513.5060   1415.01038     586.4229     513.5060
   1414.99512     585.5220     512.9145   1414.99512     585.5220     512.9145
   1414.97986     583.7714     512.2770   1414.97986     583.7714     512.2770
   1414.96460     583.2210     511.2440   1414.96460     583.2210     511.2440
   1414.94934     581.2325     511.1472   1414.94934     581.2325     511.1472
   1414.93408     580.4104     508.7214   1414.93408     580.4104     508.7214
   1414.91882     578.9619     508.7854   1414.91882     578.9619     508.7854
   1414.90356     577.2437     507.6432   1414.90356     577.2437     507.6432
   1414.88831     575.9808     506.5972   1414.88831     575.9808     506.5972
   1414.87305     575.2253     506.2130   1414.87305     575.2253     506.2130
   1414.85779     574.5546     505.0931   1414.85779     574.5546     505.0931
   1414.84253     571.9252     504.2992   1414.84253     571.9252     504.2992
   1414.82727     570.2293     503.1155   1414.82727     570.2293     503.1155
   1414.81201     569.7942     502.2499   1414.81201     569.7942     502.2499
   1414.79675     568.2798     501.8325   1414.79675     568.2798     501.8325
   1414.78149     567.0510     501.4070   1414.78149     567.0510     501.4070
   1414.76624     565.3029     500.1116   1414.76624     565.3029     500.1116
   1414.75098     563.6637     498.4035   1414.75098     563.6637     498.4035
   1414.73572     562.3811     497.8725   1414.73572     562.3811     497.8725
   1414.72046     560.3475     496.8143   1414.72046     560.3475     496.8143
   1414.70520     559.5860     495.5947   1414.70520     559.5860     495.5947
   1414.68994     557.3690     494.6684   1414.68994     557.3690     494.6684
   1414.67468     555.6129     493.9738   1414.67468     555.6129     493.9738
   1414.65942     554.4964     494.3842   1414.65942     554.4964     494.3842
   1414.64417     553.7224     491.8276   1414.64417     553.7224     491.8276
   1414.62891     551.5059     491.0756   1414.62891     551.5059     491.0756
   1414.61365     550.1602     488.9089   1414.61365     550.1602     488.9089
   1414.59839     549.0724     489.4815   1414.59839     549.0724     489.4815
   1414.58313     546.1172     486.8360   1414.58313     546.1172     486.8360
   1414.56787     544.6762     486.5295   1414.56787     544.6762     486.5295
   1414.55261     543.4706     485.3576   1414.55261     543.4706     485.3576
   1414.53735     541.6270     484.1811   1414.53735     541.6270     484.1811
   1414.52209     539.5054     482.8879   1414.52209     539.5054     482.8879
   1414.50684     539.3815     481.9345   1414.50684     539.3815     481.9345
   1414.49158     536.2365     479.9858   1414.49158     536.2365     479.9858
   1414.47632     535.0579     479.1465   1414.47632     535.0579     479.1465
   1414.46106     532.9318     478.6805   1414.46106     532.9318     478.6805
   1414.44580     531.1931     476.6741   1414.44580     531.1931     476.6741
   1414.43054     530.0833     475.6616   1414.43054     530.0833     475.6616
   1414.41528     528.6065     474.1649   1414.41528     528.6065     474.1649
   1414.40002     526.3960     472.7852   1414.40002     526.3960     472.7852
   1414.38477     524.3502     471.9037   1414.38477     524.3502     471.9037
   1414.36951     522.3110     469.8827   1414.36951     522.3110     469.8827
   1414.35425     520.1107     468.4023   1414.35425     520.1107     468.4023
   1414.33899     517.8179     467.6929   1414.33899     517.8179     467.6929
   1414.32373     516.4844     466.2565   1414.32373     516.4844     466.2565
   1414.30847     515.3226     464.7538   1414.30847     515.3226     464.7538
   1414.29321     512.6673     462.7766   1414.29321     512.6673     462.7766
   1414.27795     510.7249     462.7018   1414.27795     510.7249     462.7018
   1414.26270     508.7836     460.9669   1414.26270     508.7836     460.9669
   1414.24744     506.7006     459.2208   1414.24744     506.7006     459.2208
   1414.23218     504.3527     457.9422   1414.23218     504.3527     457.9422
   1414.21692     503.1612     456.2106   1414.21692     503.1612     456.2106
   1414.20166     500.8228     453.9533   1414.20166     500.8228     453.9533
   1414.18640     498.5787     452.9809   1414.18640     498.5787     452.9809
   1414.17114     497.1883     451.3684   1414.17114     497.1883     451.3684
   1414.15588     495.7163     450.5140   1414.15588     495.7163     450.5140
   1414.14062     493.1504     449.2583   1414.14062     493.1504     449.2583
   1414.12537     490.3286     447.0999   1414.12537     490.3286     447.0999
   1414.11011     489.0788     445.4587   1414.11011     489.0788     445.4587
   1414.09485     485.9791     443.7299   1414.09485     485.9791     443.7299
   1414.07959     484.9118     442.1046   1414.07959     484.9118     442.1046
   1414.06433     482.2061     441.3970   1414.06433     482.2061     441.3970
   1414.04907     480.8251     438.9620   1414.04907     480.8251     438.9620
   1414.03381     478.2424     438.2053   1414.03381     478.2424     438.2053
   1414.01855     477.5054     436.0668   1414.01855     477.5054     436.0668
   1414.00330     503.1399     443.3439   1414.00330     503.1399     443.3439
   1413.98804     474.3900     433.0687   1413.98804     474.3900     433.0687
   1413.97278     469.7649     431.4270   1413.97278     469.7649     431.4270
   1413.95752     467.2124     429.8274   1413.95752     467.2124     429.8274
   1413.94226     466.2217     427.3959   1413.94226     466.2217     427.3959
   1413.92700     463.4736     426.5007   1413.92700     463.4736     426.5007
   1413.91174     460.4520     424.2583   1413.91174     460.4520     424.2583
   1413.89648     458.9031     422.8356   1413.89648     458.9031     422.8356
   1413.88123     456.7911     420.8481   1413.88123     456.7911     420.8481
   1413.86597     453.8701     420.1241   1413.86597     453.8701     420.1241
   1413.85071     452.4261     417.9169   1413.85071     452.4261     417.9169
   1413.83545     449.8362     415.5664   1413.83545     449.8362     415.5664
   1413.82019     446.9843     413.9118   1413.82019     446.9843     413.9118
   1413.80493     445.8778     412.1146   1413.80493     445.8778     412.1146
   1413.78967     442.9348     411.2529   1413.78967     442.9348     411.2529
   1413.77441     440.7770     408.5513   1413.77441     440.7770     408.5513
   1413.75916     438.5643     407.4127   1413.75916     438.5643     407.4127
   1413.74390     436.3558     404.9829   1413.74390     436.3558     404.9829
   1413.72864     434.2276     403.7286   1413.72864     434.2276     403.7286
   1413.71338     431.8186     402.6592   1413.71338     431.8186     402.6592
   1413.69812     430.1869     401.2656   1413.69812     430.1869     401.2656
   1413.68286     427.6640     398.6756   1413.68286     427.6640     398.6756
   1413.66760     425.2827     397.1849   1413.66760     425.2827     397.1849
   1413.65234     422.8388     394.9787   1413.65234     422.8388     394.9787
   1413.63708     420.7631     393.5620   1413.63708     420.7631     393.5620
   1413.62183     418.5098     391.4593   1413.62183     418.5098     391.4593
   1413.60657     416.5538     389.2891   1413.60657     416.5538     389.2891
   1413.59131     413.5986     388.3433   1413.59131     413.5986     388.3433
   1413.57605     411.3948     386.8705   1413.57605     411.3948     386.8705
   1413.56079     409.4422     385.0101   1413.56079     409.4422     385.0101
   1413.54553     406.9179     383.2092   1413.54553     406.9179     383.2092
   1413.53027     405.2084     381.1332   1413.53027     405.2084     381.1332
   1413.51501     402.8467     379.8526   1413.51501     402.8467     379.8526
   1413.49976     400.7143     378.6700   1413.49976     400.7143     378.6700
   1413.48450     398.6436     375.9928   1413.48450     398.6436     375.9928
   1413.46924     396.2965     374.7838   1413.46924     396.2965     374.7838
   1413.45398     394.8488     372.8013   1413.45398     394.8488     372.8013
   1413.43872     391.7652     371.1154   1413.43872     391.7652     371.1154
   1413.42346     389.5604     369.7563   1413.42346     389.5604     369.7563
   1413.40820     387.5885     368.5715   1413.40820     387.5885     368.5715
   1413.39294     385.7859     366.8083   1413.39294     385.7859     366.8083
   1413.37769     382.7537     365.0145   1413.37769     382.7537     365.0145
   1413.36243     380.5968     363.4568   1413.36243     380.5968     363.4568
   1413.34717     378.6696     361.7764   1413.34717     378.6696     361.7764
   1413.33191     377.1711     360.0551   1413.33191     377.1711     360.0551
   1413.31665     374.3442     358.4556   1413.31665     374.3442     358.4556
   1413.30139     372.5889     357.1183   1413.30139     372.5889     357.1183
   1413.28613     370.5497     355.7842   1413.28613     370.5497     355.7842
   1413.27087     368.4169     353.9174   1413.27087     368.4169     353.9174
   1413.25562     366.7814     353.2134   1413.25562     366.7814     353.2134
   1413.24036     363.7214     350.9486   1413.24036     363.7214     350.9486
   1413.22510     362.1503     350.1689   1413.22510     362.1503     350.1689
   1413.20984     361.2605     348.5554   1413.20984     361.2605     348.5554
   1413.19458     358.3692     346.8904   1413.19458     358.3692     346.8904
   1413.17932     356.6150     345.8828   1413.17932     356.6150     345.8828
   1413.16406     355.2224     344.6678   1413.16406     355.2224     344.6678
   1413.14880     352.9465     343.1385   1413.14880     352.9465     343.1385
   1413.13354     351.1883     341.9483   1413.13354     351.1883     341.9483
   1413.11829     349.2496     341.2257   1413.11829     349.2496     341.2257
   1413.10303     347.8678     339.2239   1413.10303     347.8678     339.2239
   1413.08777     344.7769     338.7395   1413.08777     344.7769     338.7395
   1413.07251     344.1574     336.9478   1413.07251     344.1574     336.9478
   1413.05725     342.8055     336.1106   1413.05725     342.8055     336.1106
   1413.04199     340.7200     335.3219   1413.04199     340.7200     335.3219
   1413.02673     338.5263     333.9259   1413.02673     338.5263     333.9259
   1413.01147     336.7814     333.1667   1413.01147     336.7814     333.1667
   1412.99622     335.6572     331.8890   1412.99622     335.6572     331.8890
   1412.98096     334.1009     331.1912   1412.98096     334.1009     331.1912
   1412.96570     332.5510     330.4366   1412.96570     332.5510     330.4366
   1412.95044     330.7842     329.4868   1412.95044     330.7842     329.4868
   1412.93518     329.0167     328.7685   1412.93518     329.0167     328.7685
   1412.91992     327.7341     327.5415   1412.91992     327.7341     327.5415
   1412.90466     326.1437     326.4400   1412.90466     326.1437     326.4400
   1412.88940     325.2011     326.1564   1412.88940     325.2011     326.1564
   1412.87415     323.7258     325.1081   1412.87415     323.7258     325.1081
   1412.85889     322.3646     324.6211   1412.85889     322.3646     324.6211
   1412.84363     321.2261     323.7554   1412.84363     321.2261     323.7554
   1412.82837     319.7191     322.9409   1412.82837     319.7191     322.9409
   1412.81311     318.0865     322.0680   1412.81311     318.0865     322.0680
   1412.79785     316.7296     322.1535   1412.79785     316.7296     322.1535
   1412.78259     315.6772     321.4030   1412.78259     315.6772     321.4030
   1412.76733     315.0447     321.4184   1412.76733     315.0447     321.4184
   1412.75208     313.5127     321.2717   1412.75208     313.5127     321.2717
   1412.73682     312.8391     320.3710   1412.73682     312.8391     320.3710
   1412.72156     311.8737     320.4485   1412.72156     311.8737     320.4485
   1412.70630     310.4348     320.1852   1412.70630     310.4348     320.1852
   1412.69104     309.2040     319.3528   1412.69104     309.2040     319.3528
   1412.67578     308.6968     319.5323   1412.67578     308.6968     319.5323
   1412.66052     307.7861     319.2077   1412.66052     307.7861     319.2077
   1412.64526     306.9317     318.9856   1412.64526     306.9317     318.9856
   1412.63000     306.1605     319.2148   1412.63000     306.1605     319.2148
   1412.61475     305.3979     319.0516   1412.61475     305.3979     319.0516
   1412.59949     304.7962     319.3588   1412.59949     304.7962     319.3588
   1412.58423     303.8857     319.2160   1412.58423     303.8857     319.2160
   1412.56897     303.7289     319.7756   1412.56897     303.7289     319.7756
   1412.55371     302.7986     319.7238   1412.55371     302.7986     319.7238
   1412.53845     302.6206     320.0232   1412.53845     302.6206     320.0232
   1412.52319     302.1177     320.8972   1412.52319     302.1177     320.8972
   1412.50793     301.7500     320.7746   1412.50793     301.7500     320.7746
   1412.49268     301.8112     321.1656   1412.49268     301.8112     321.1656
   1412.47742     301.2121     321.8054   1412.47742     301.2121     321.8054
   1412.46216     300.6244     322.1928   1412.46216     300.6244     322.1928
   1412.44690     300.0905     322.1748   1412.44690     300.0905     322.1748
   1412.43164     300.0510     323.2043   1412.43164     300.0510     323.2043
   1412.41638     299.9070     323.7729   1412.41638     299.9070     323.7729
   1412.40112     299.6057     324.5083   1412.40112     299.6057     324.5083
   1412.38586     299.6693     325.0497   1412.38586     299.6693     325.0497
   1412.37061     299.2759     325.9261   1412.37061     299.2759     325.9261
   1412.35535     299.3745     326.9337   1412.35535     299.3745     326.9337
   1412.34009     299.2033     327.4969   1412.34009     299.2033     327.4969
   1412.32483     299.3915     328.8369   1412.32483     299.3915     328.8369
   1412.30957     299.7145     330.1512   1412.30957     299.7145     330.1512
   1412.29431     300.1567     331.1660   1412.29431     300.1567     331.1660
   1412.27905     299.8322     331.4957   1412.27905     299.8322     331.4957
   1412.26379     300.3292     332.8240   1412.26379     300.3292     332.8240
   1412.24854     300.6077     334.0226   1412.24854     300.6077     334.0226
   1412.23328     301.1288     335.6199   1412.23328     301.1288     335.6199
   1412.21802     300.8355     336.7375   1412.21802     300.8355     336.7375
   1412.20276     301.2659     338.1895   1412.20276     301.2659     338.1895