#     FILENAME=!Skynet_57528_lach-hhg-153_20503_20977.cyb.fits
#     BASENAME=Skynet_57528_lach-hhg-153_20503_20977
#     SRC_NAME=lach-hhg-153
#     OBSERVER=hhgmadison16_9500
#     DATE_OBS=2016-05-20T17:43:34.750
#        OBSID=20503
#      SCANNUM=20977
#          MJD=57528.7396
#          UTC=63904
#     SCANTYPE=track
#     DATAMODE=HIRES
#     TUNEFREQ=1420.0000
# Actual_FREQ1=1420.0000
# Actual_FREQ2=1420.0000
#    LO1Tuning=6870.000
#     RFFILTER=1355_1435
#        OBSBW=-15.6250
#        NCHAN=1024 
#        FOCUS=37.0709
#           RA=04:18:30.14
#          DEC=50:22:28.05
#      RA(hrs)=4.308400
#     DEC(deg)=50.374500
#    AZIM(deg)=359.745
#    ELEV(deg)=77.952
#     IFattens=10.00, 9.00
#      WARNING=None
#    TCAL_XL1=7.9635
#    TCAL_YR1=9.1340
#    TCAL_XL2=7.9635
#    TCAL_YR2=9.1340
#     TRX_XL1=11.7060
#     TRX_YR1=11.7060
#     TRX_XL2=11.7060
#     TRX_YR2=11.7060
#        TAVE=1.0000
#Freq1(MHz)          XL1          YR1  Freq2(MHz)          XL2          YR2 

   1427.81250     378.9418     335.4409   1427.81250     378.9418     335.4409
   1427.79724     379.7754     336.7291   1427.79724     379.7754     336.7291
   1427.78198     380.7567     338.3615   1427.78198     380.7567     338.3615
   1427.76672     381.3562     339.8355   1427.76672     381.3562     339.8355
   1427.75146     382.5602     341.1555   1427.75146     382.5602     341.1555
   1427.73621     382.9138     342.9827   1427.73621     382.9138     342.9827
   1427.72095     384.2923     344.4831   1427.72095     384.2923     344.4831
   1427.70569     385.1240     346.4593   1427.70569     385.1240     346.4593
   1427.69043     385.8077     348.2947   1427.69043     385.8077     348.2947
   1427.67517     386.9734     349.3972   1427.67517     386.9734     349.3972
   1427.65991     388.2854     351.3494   1427.65991     388.2854     351.3494
   1427.64465     388.9130     353.2605   1427.64465     388.9130     353.2605
   1427.62939     390.6859     355.7822   1427.62939     390.6859     355.7822
   1427.61414     391.8051     357.1439   1427.61414     391.8051     357.1439
   1427.59888     393.2062     358.7987   1427.59888     393.2062     358.7987
   1427.58362     394.6261     360.8631   1427.58362     394.6261     360.8631
   1427.56836     396.3596     362.5421   1427.56836     396.3596     362.5421
   1427.55310     397.7463     364.7385   1427.55310     397.7463     364.7385
   1427.53784     399.1801     367.3326   1427.53784     399.1801     367.3326
   1427.52258     400.8874     369.6704   1427.52258     400.8874     369.6704
   1427.50732     402.6306     371.4084   1427.50732     402.6306     371.4084
   1427.49207     404.0222     373.3144   1427.49207     404.0222     373.3144
   1427.47681     405.6032     375.4913   1427.47681     405.6032     375.4913
   1427.46155     407.8313     377.7668   1427.46155     407.8313     377.7668
   1427.44629     410.0701     379.6436   1427.44629     410.0701     379.6436
   1427.43103     411.8063     382.2516   1427.43103     411.8063     382.2516
   1427.41577     413.7269     384.6961   1427.41577     413.7269     384.6961
   1427.40051     415.4326     387.1723   1427.40051     415.4326     387.1723
   1427.38525     417.1146     389.9923   1427.38525     417.1146     389.9923
   1427.37000     419.2246     391.0538   1427.37000     419.2246     391.0538
   1427.35474     421.3960     394.4116   1427.35474     421.3960     394.4116
   1427.33948     423.4903     396.3619   1427.33948     423.4903     396.3619
   1427.32422     426.3178     398.7260   1427.32422     426.3178     398.7260
   1427.30896     428.0063     400.7785   1427.30896     428.0063     400.7785
   1427.29370     430.4872     403.8858   1427.29370     430.4872     403.8858
   1427.27844     432.3313     405.3888   1427.27844     432.3313     405.3888
   1427.26318     434.6085     408.7047   1427.26318     434.6085     408.7047
   1427.24792     437.2457     410.8968   1427.24792     437.2457     410.8968
   1427.23267     440.4268     413.6515   1427.23267     440.4268     413.6515
   1427.21741     442.1962     415.5607   1427.21741     442.1962     415.5607
   1427.20215     444.5657     418.4665   1427.20215     444.5657     418.4665
   1427.18689     447.2775     420.6750   1427.18689     447.2775     420.6750
   1427.17163     449.9404     423.4034   1427.17163     449.9404     423.4034
   1427.15637     452.2355     425.7917   1427.15637     452.2355     425.7917
   1427.14111     454.5325     427.9593   1427.14111     454.5325     427.9593
   1427.12585     457.8557     431.0084   1427.12585     457.8557     431.0084
   1427.11060     460.1045     433.2778   1427.11060     460.1045     433.2778
   1427.09534     462.9944     435.7677   1427.09534     462.9944     435.7677
   1427.08008     465.8911     437.9479   1427.08008     465.8911     437.9479
   1427.06482     468.9308     439.9059   1427.06482     468.9308     439.9059
   1427.04956     470.5832     442.1299   1427.04956     470.5832     442.1299
   1427.03430     473.3919     446.4708   1427.03430     473.3919     446.4708
   1427.01904     476.5686     448.3084   1427.01904     476.5686     448.3084
   1427.00378     479.5587     450.9068   1427.00378     479.5587     450.9068
   1426.98853     482.4092     453.0088   1426.98853     482.4092     453.0088
   1426.97327     485.4801     455.9691   1426.97327     485.4801     455.9691
   1426.95801     487.7341     458.0410   1426.95801     487.7341     458.0410
   1426.94275     491.2603     460.0800   1426.94275     491.2603     460.0800
   1426.92749     494.2042     462.8749   1426.92749     494.2042     462.8749
   1426.91223     495.9135     465.0111   1426.91223     495.9135     465.0111
   1426.89697     499.2380     467.5793   1426.89697     499.2380     467.5793
   1426.88171     503.4676     470.2527   1426.88171     503.4676     470.2527
   1426.86646     506.1027     472.5233   1426.86646     506.1027     472.5233
   1426.85120     508.4134     475.7057   1426.85120     508.4134     475.7057
   1426.83594     512.2187     476.9303   1426.83594     512.2187     476.9303
   1426.82068     515.1895     479.4063   1426.82068     515.1895     479.4063
   1426.80542     517.9112     481.8958   1426.80542     517.9112     481.8958
   1426.79016     521.0880     484.4858   1426.79016     521.0880     484.4858
   1426.77490     524.7609     487.7593   1426.77490     524.7609     487.7593
   1426.75964     527.2511     489.5846   1426.75964     527.2511     489.5846
   1426.74438     530.9544     491.6156   1426.74438     530.9544     491.6156
   1426.72913     533.7990     494.3904   1426.72913     533.7990     494.3904
   1426.71387     536.0735     496.8168   1426.71387     536.0735     496.8168
   1426.69861     539.8121     498.9665   1426.69861     539.8121     498.9665
   1426.68335     543.6726     501.2254   1426.68335     543.6726     501.2254
   1426.66809     545.9451     503.4033   1426.66809     545.9451     503.4033
   1426.65283     548.9476     504.4520   1426.65283     548.9476     504.4520
   1426.63757     552.0165     507.0485   1426.63757     552.0165     507.0485
   1426.62231     557.9033     512.5889   1426.62231     557.9033     512.5889
   1426.60706     557.6115     512.0190   1426.60706     557.6115     512.0190
   1426.59180     561.5466     514.1633   1426.59180     561.5466     514.1633
   1426.57654     565.1617     515.0563   1426.57654     565.1617     515.0563
   1426.56128     568.7003     517.6698   1426.56128     568.7003     517.6698
   1426.54602     570.4810     519.8763   1426.54602     570.4810     519.8763
   1426.53076     574.5469     521.6359   1426.53076     574.5469     521.6359
   1426.51550     576.5101     523.1821   1426.51550     576.5101     523.1821
   1426.50024     580.9861     524.9535   1426.50024     580.9861     524.9535
   1426.48499     583.9098     526.8670   1426.48499     583.9098     526.8670
   1426.46973     586.8734     527.8386   1426.46973     586.8734     527.8386
   1426.45447     589.7557     531.5199   1426.45447     589.7557     531.5199
   1426.43921     592.6937     532.4750   1426.43921     592.6937     532.4750
   1426.42395     595.2542     534.9730   1426.42395     595.2542     534.9730
   1426.40869     598.1666     536.7346   1426.40869     598.1666     536.7346
   1426.39343     601.4244     537.6653   1426.39343     601.4244     537.6653
   1426.37817     604.4507     540.0480   1426.37817     604.4507     540.0480
   1426.36292     608.6750     542.2850   1426.36292     608.6750     542.2850
   1426.34766     610.4958     544.7656   1426.34766     610.4958     544.7656
   1426.33240     613.6995     545.7139   1426.33240     613.6995     545.7139
   1426.31714     616.6210     547.0012   1426.31714     616.6210     547.0012
   1426.30188     620.8890     549.1812   1426.30188     620.8890     549.1812
   1426.28662     621.5807     550.4429   1426.28662     621.5807     550.4429
   1426.27136     625.3849     552.4117   1426.27136     625.3849     552.4117
   1426.25610     627.7975     553.2407   1426.25610     627.7975     553.2407
   1426.24084     630.8782     555.8855   1426.24084     630.8782     555.8855
   1426.22559     635.0370     557.1810   1426.22559     635.0370     557.1810
   1426.21033     637.4243     559.1090   1426.21033     637.4243     559.1090
   1426.19507     640.6262     559.9858   1426.19507     640.6262     559.9858
   1426.17981     642.1214     561.5364   1426.17981     642.1214     561.5364
   1426.16455     646.0355     563.0338   1426.16455     646.0355     563.0338
   1426.14929     647.8989     564.8804   1426.14929     647.8989     564.8804
   1426.13403     650.6859     566.1352   1426.13403     650.6859     566.1352
   1426.11877     654.1343     567.6985   1426.11877     654.1343     567.6985
   1426.10352     655.8081     568.8594   1426.10352     655.8081     568.8594
   1426.08826     659.2432     569.7508   1426.08826     659.2432     569.7508
   1426.07300     662.0403     572.3478   1426.07300     662.0403     572.3478
   1426.05774     664.5308     571.8593   1426.05774     664.5308     571.8593
   1426.04248     667.4205     573.9897   1426.04248     667.4205     573.9897
   1426.02722     669.1705     575.1303   1426.02722     669.1705     575.1303
   1426.01196     673.3256     576.4418   1426.01196     673.3256     576.4418
   1425.99670     674.4869     577.6873   1425.99670     674.4869     577.6873
   1425.98145     676.5649     578.9637   1425.98145     676.5649     578.9637
   1425.96619     680.1725     580.3864   1425.96619     680.1725     580.3864
   1425.95093     682.3430     581.4727   1425.95093     682.3430     581.4727
   1425.93567     685.3397     582.0621   1425.93567     685.3397     582.0621
   1425.92041     686.4653     583.7104   1425.92041     686.4653     583.7104
   1425.90515     689.2481     585.1700   1425.90515     689.2481     585.1700
   1425.88989     691.1255     585.7448   1425.88989     691.1255     585.7448
   1425.87463     693.2185     586.6505   1425.87463     693.2185     586.6505
   1425.85938     696.9243     587.3382   1425.85938     696.9243     587.3382
   1425.84412     698.2081     589.2311   1425.84412     698.2081     589.2311
   1425.82886     699.7840     589.3998   1425.82886     699.7840     589.3998
   1425.81360     702.1378     590.9653   1425.81360     702.1378     590.9653
   1425.79834     704.3418     593.0121   1425.79834     704.3418     593.0121
   1425.78308     705.9644     591.7531   1425.78308     705.9644     591.7531
   1425.76782     708.7357     593.2305   1425.76782     708.7357     593.2305
   1425.75256     710.4832     594.4727   1425.75256     710.4832     594.4727
   1425.73730     713.0711     595.0948   1425.73730     713.0711     595.0948
   1425.72205     715.0925     596.5776   1425.72205     715.0925     596.5776
   1425.70679     716.5001     596.4576   1425.70679     716.5001     596.4576
   1425.69153     718.7512     597.1785   1425.69153     718.7512     597.1785
   1425.67627     721.3674     599.1039   1425.67627     721.3674     599.1039
   1425.66101     722.5684     598.5602   1425.66101     722.5684     598.5602
   1425.64575     722.5499     600.1181   1425.64575     722.5499     600.1181
   1425.63049     724.7108     600.6359   1425.63049     724.7108     600.6359
   1425.61523     726.8391     601.0764   1425.61523     726.8391     601.0764
   1425.59998     729.3782     601.5188   1425.59998     729.3782     601.5188
   1425.58472     730.4665     601.8215   1425.58472     730.4665     601.8215
   1425.56946     733.7070     603.2300   1425.56946     733.7070     603.2300
   1425.55420     733.2555     603.1790   1425.55420     733.2555     603.1790
   1425.53894     735.8767     605.2653   1425.53894     735.8767     605.2653
   1425.52368     737.2659     604.9216   1425.52368     737.2659     604.9216
   1425.50842     738.5573     606.1713   1425.50842     738.5573     606.1713
   1425.49316     740.3463     606.5059   1425.49316     740.3463     606.5059
   1425.47791     741.7397     605.9624   1425.47791     741.7397     605.9624
   1425.46265     742.1658     607.4886   1425.46265     742.1658     607.4886
   1425.44739     744.0042     607.5053   1425.44739     744.0042     607.5053
   1425.43213     745.5125     608.9277   1425.43213     745.5125     608.9277
   1425.41687     747.8351     608.4125   1425.41687     747.8351     608.4125
   1425.40161     748.7578     608.8466   1425.40161     748.7578     608.8466
   1425.38635     750.4922     609.6237   1425.38635     750.4922     609.6237
   1425.37109     751.1879     609.5464   1425.37109     751.1879     609.5464
   1425.35583     750.8437     610.3004   1425.35583     750.8437     610.3004
   1425.34058     753.5726     610.7687   1425.34058     753.5726     610.7687
   1425.32532     754.4648     610.8196   1425.32532     754.4648     610.8196
   1425.31006     754.6024     610.7042   1425.31006     754.6024     610.7042
   1425.29480     757.5408     610.2075   1425.29480     757.5408     610.2075
   1425.27954     757.2114     612.0150   1425.27954     757.2114     612.0150
   1425.26428     757.4436     611.6796   1425.26428     757.4436     611.6796
   1425.24902     760.2625     612.1526   1425.24902     760.2625     612.1526
   1425.23376     760.5562     612.3464   1425.23376     760.5562     612.3464
   1425.21851     761.8506     612.5253   1425.21851     761.8506     612.5253
   1425.20325     762.0496     612.6387   1425.20325     762.0496     612.6387
   1425.18799     762.8528     612.5685   1425.18799     762.8528     612.5685
   1425.17273     763.7572     612.6459   1425.17273     763.7572     612.6459
   1425.15747     764.7302     612.9566   1425.15747     764.7302     612.9566
   1425.14221     765.4419     613.3727   1425.14221     765.4419     613.3727
   1425.12695     766.0646     614.5987   1425.12695     766.0646     614.5987
   1425.11169     766.3309     613.7529   1425.11169     766.3309     613.7529
   1425.09644     767.1078     614.5608   1425.09644     767.1078     614.5608
   1425.08118     767.8615     614.0308   1425.08118     767.8615     614.0308
   1425.06592     768.6193     614.4531   1425.06592     768.6193     614.4531
   1425.05066     768.6873     614.9685   1425.05066     768.6873     614.9685
   1425.03540     770.2625     615.5350   1425.03540     770.2625     615.5350
   1425.02014     769.7133     614.3598   1425.02014     769.7133     614.3598
   1425.00488     769.2299     614.8961   1425.00488     769.2299     614.8961
   1424.98962     770.9669     614.5817   1424.98962     770.9669     614.5817
   1424.97437     772.1041     615.1282   1424.97437     772.1041     615.1282
   1424.95911     771.5486     615.4645   1424.95911     771.5486     615.4645
   1424.94385     771.1667     614.3348   1424.94385     771.1667     614.3348
   1424.92859     772.7964     614.7939   1424.92859     772.7964     614.7939
   1424.91333     772.5198     613.8976   1424.91333     772.5198     613.8976
   1424.89807     774.2705     614.2175   1424.89807     774.2705     614.2175
   1424.88281     772.4688     613.5175   1424.88281     772.4688     613.5175
   1424.86755     773.1495     615.1547   1424.86755     773.1495     615.1547
   1424.85229     774.2510     613.1608   1424.85229     774.2510     613.1608
   1424.83704     772.5918     614.5335   1424.83704     772.5918     614.5335
   1424.82178     773.9778     614.8629   1424.82178     773.9778     614.8629
   1424.80652     774.4269     614.4600   1424.80652     774.4269     614.4600
   1424.79126     774.9147     614.1342   1424.79126     774.9147     614.1342
   1424.77600     773.2791     613.4577   1424.77600     773.2791     613.4577
   1424.76074     775.0464     615.1015   1424.76074     775.0464     615.1015
   1424.74548     775.8077     613.3717   1424.74548     775.8077     613.3717
   1424.73022     775.8585     614.0152   1424.73022     775.8585     614.0152
   1424.71497     774.2757     613.4121   1424.71497     774.2757     613.4121
   1424.69971     775.5488     614.1768   1424.69971     775.5488     614.1768
   1424.68445     776.0064     612.9779   1424.68445     776.0064     612.9779
   1424.66919     774.8192     612.7946   1424.66919     774.8192     612.7946
   1424.65393     774.4023     613.1300   1424.65393     774.4023     613.1300
   1424.63867     775.4903     613.2371   1424.63867     775.4903     613.2371
   1424.62341     774.8024     612.6985   1424.62341     774.8024     612.6985
   1424.60815     774.9608     611.6540   1424.60815     774.9608     611.6540
   1424.59290     774.7751     611.3981   1424.59290     774.7751     611.3981
   1424.57764     774.4181     612.4594   1424.57764     774.4181     612.4594
   1424.56238     773.6389     612.5463   1424.56238     773.6389     612.5463
   1424.54712     775.2184     611.6309   1424.54712     775.2184     611.6309
   1424.53186     773.0268     611.9272   1424.53186     773.0268     611.9272
   1424.51660     775.0526     611.6332   1424.51660     775.0526     611.6332
   1424.50134     774.2420     611.9661   1424.50134     774.2420     611.9661
   1424.48608     772.8974     611.4590   1424.48608     772.8974     611.4590
   1424.47083     772.5209     611.4319   1424.47083     772.5209     611.4319
   1424.45557     773.0673     610.1290   1424.45557     773.0673     610.1290
   1424.44031     772.5596     609.4219   1424.44031     772.5596     609.4219
   1424.42505     773.6727     610.5715   1424.42505     773.6727     610.5715
   1424.40979     771.9409     608.5779   1424.40979     771.9409     608.5779
   1424.39453     771.9781     609.2032   1424.39453     771.9781     609.2032
   1424.37927     771.4821     610.4192   1424.37927     771.4821     610.4192
   1424.36401     771.6385     608.4683   1424.36401     771.6385     608.4683
   1424.34875     771.3015     608.3261   1424.34875     771.3015     608.3261
   1424.33350     770.0359     607.8707   1424.33350     770.0359     607.8707
   1424.31824     770.0965     608.1848   1424.31824     770.0965     608.1848
   1424.30298     769.1082     608.3913   1424.30298     769.1082     608.3913
   1424.28772     770.8648     607.3028   1424.28772     770.8648     607.3028
   1424.27246     768.5997     607.1846   1424.27246     768.5997     607.1846
   1424.25720     769.2706     605.5250   1424.25720     769.2706     605.5250
   1424.24194     768.7297     606.8001   1424.24194     768.7297     606.8001
   1424.22668     769.2424     606.5672   1424.22668     769.2424     606.5672
   1424.21143     767.3224     606.5800   1424.21143     767.3224     606.5800
   1424.19617     768.1113     606.3742   1424.19617     768.1113     606.3742
   1424.18091     766.0432     604.6384   1424.18091     766.0432     604.6384
   1424.16565     766.1590     604.2392   1424.16565     766.1590     604.2392
   1424.15039     765.7518     604.4794   1424.15039     765.7518     604.4794
   1424.13513     765.1305     604.0396   1424.13513     765.1305     604.0396
   1424.11987     765.3175     604.0685   1424.11987     765.3175     604.0685
   1424.10461     764.7017     603.7464   1424.10461     764.7017     603.7464
   1424.08936     763.4861     602.4474   1424.08936     763.4861     602.4474
   1424.07410     763.0596     602.9717   1424.07410     763.0596     602.9717
   1424.05884     762.4694     602.5233   1424.05884     762.4694     602.5233
   1424.04358     761.9487     602.3351   1424.04358     761.9487     602.3351
   1424.02832     762.3833     602.0251   1424.02832     762.3833     602.0251
   1424.01306     760.2458     601.4232   1424.01306     760.2458     601.4232
   1423.99780     761.1865     600.5466   1423.99780     761.1865     600.5466
   1423.98254     760.3351     600.8766   1423.98254     760.3351     600.8766
   1423.96729     759.9832     600.2774   1423.96729     759.9832     600.2774
   1423.95203     758.4817     600.3188   1423.95203     758.4817     600.3188
   1423.93677     757.8600     599.3788   1423.93677     757.8600     599.3788
   1423.92151     757.5872     598.2603   1423.92151     757.5872     598.2603
   1423.90625     758.2252     598.8245   1423.90625     758.2252     598.8245
   1423.89099     757.2770     598.0571   1423.89099     757.2770     598.0571
   1423.87573     756.5745     598.4796   1423.87573     756.5745     598.4796
   1423.86047     755.7703     597.6976   1423.86047     755.7703     597.6976
   1423.84521     755.1633     597.0087   1423.84521     755.1633     597.0087
   1423.82996     753.7035     596.4479   1423.82996     753.7035     596.4479
   1423.81470     754.2930     595.9548   1423.81470     754.2930     595.9548
   1423.79944     753.8975     595.6833   1423.79944     753.8975     595.6833
   1423.78418     753.7352     596.1608   1423.78418     753.7352     596.1608
   1423.76892     752.3508     594.6506   1423.76892     752.3508     594.6506
   1423.75366     752.4782     594.7378   1423.75366     752.4782     594.7378
   1423.73840     752.6953     593.4792   1423.73840     752.6953     593.4792
   1423.72314     750.9160     593.6105   1423.72314     750.9160     593.6105
   1423.70789     750.7062     592.8745   1423.70789     750.7062     592.8745
   1423.69263     751.5811     592.1623   1423.69263     751.5811     592.1623
   1423.67737     749.7390     592.3810   1423.67737     749.7390     592.3810
   1423.66211     749.2338     592.1048   1423.66211     749.2338     592.1048
   1423.64685     748.8015     590.9218   1423.64685     748.8015     590.9218
   1423.63159     749.2720     591.9761   1423.63159     749.2720     591.9761
   1423.61633     747.7511     589.7595   1423.61633     747.7511     589.7595
   1423.60107     746.1618     589.7776   1423.60107     746.1618     589.7776
   1423.58582     747.1342     589.5650   1423.58582     747.1342     589.5650
   1423.57056     746.3250     588.8489   1423.57056     746.3250     588.8489
   1423.55530     746.0731     588.8326   1423.55530     746.0731     588.8326
   1423.54004     744.9370     587.2673   1423.54004     744.9370     587.2673
   1423.52478     743.2372     587.3079   1423.52478     743.2372     587.3079
   1423.50952     744.6251     586.6994   1423.50952     744.6251     586.6994
   1423.49426     742.5078     586.2035   1423.49426     742.5078     586.2035
   1423.47900     743.8888     586.1522   1423.47900     743.8888     586.1522
   1423.46375     741.8875     585.7381   1423.46375     741.8875     585.7381
   1423.44849     741.8610     585.4874   1423.44849     741.8610     585.4874
   1423.43323     740.5759     585.1927   1423.43323     740.5759     585.1927
   1423.41797     739.4898     584.3600   1423.41797     739.4898     584.3600
   1423.40271     739.8298     583.4864   1423.40271     739.8298     583.4864
   1423.38745     740.8677     582.3466   1423.38745     740.8677     582.3466
   1423.37219     738.4000     582.6106   1423.37219     738.4000     582.6106
   1423.35693     738.9171     581.1197   1423.35693     738.9171     581.1197
   1423.34167     738.1767     582.0476   1423.34167     738.1767     582.0476
   1423.32642     738.1385     580.4200   1423.32642     738.1385     580.4200
   1423.31116     737.6406     579.3209   1423.31116     737.6406     579.3209
   1423.29590     737.5958     580.5250   1423.29590     737.5958     580.5250
   1423.28064     736.3539     579.4024   1423.28064     736.3539     579.4024
   1423.26538     736.8214     578.0150   1423.26538     736.8214     578.0150
   1423.25012     734.7390     578.3480   1423.25012     734.7390     578.3480
   1423.23486     734.8233     576.3539   1423.23486     734.8233     576.3539
   1423.21960     734.9100     576.7452   1423.21960     734.9100     576.7452
   1423.20435     734.5508     575.6116   1423.20435     734.5508     575.6116
   1423.18909     733.4192     575.1840   1423.18909     733.4192     575.1840
   1423.17383     733.0449     575.2802   1423.17383     733.0449     575.2802
   1423.15857     733.6984     574.8900   1423.15857     733.6984     574.8900
   1423.14331     732.7697     573.4406   1423.14331     732.7697     573.4406
   1423.12805     732.1672     573.1886   1423.12805     732.1672     573.1886
   1423.11279     731.3739     572.8452   1423.11279     731.3739     572.8452
   1423.09753     732.4504     571.8529   1423.09753     732.4504     571.8529
   1423.08228     730.5933     571.9980   1423.08228     730.5933     571.9980
   1423.06702     730.6294     571.6254   1423.06702     730.6294     571.6254
   1423.05176     730.1469     570.6894   1423.05176     730.1469     570.6894
   1423.03650     730.2551     569.6949   1423.03650     730.2551     569.6949
   1423.02124     729.5124     568.5069   1423.02124     729.5124     568.5069
   1423.00598     729.3578     568.5693   1423.00598     729.3578     568.5693
   1422.99072     729.6531     567.0411   1422.99072     729.6531     567.0411
   1422.97546     729.0421     566.2922   1422.97546     729.0421     566.2922
   1422.96021     728.4958     566.2851   1422.96021     728.4958     566.2851
   1422.94495     727.0591     565.7834   1422.94495     727.0591     565.7834
   1422.92969     727.3011     565.1638   1422.92969     727.3011     565.1638
   1422.91443     727.9367     564.3604   1422.91443     727.9367     564.3604
   1422.89917     726.7956     564.0721   1422.89917     726.7956     564.0721
   1422.88391     727.1570     563.3796   1422.88391     727.1570     563.3796
   1422.86865     726.0430     561.8860   1422.86865     726.0430     561.8860
   1422.85339     727.1060     561.1575   1422.85339     727.1060     561.1575
   1422.83813     725.5078     560.5348   1422.83813     725.5078     560.5348
   1422.82288     725.8097     560.5120   1422.82288     725.8097     560.5120
   1422.80762     724.5770     559.6871   1422.80762     724.5770     559.6871
   1422.79236     724.8323     558.8997   1422.79236     724.8323     558.8997
   1422.77710     725.6204     557.9739   1422.77710     725.6204     557.9739
   1422.76184     723.9986     556.7688   1422.76184     723.9986     556.7688
   1422.74658     724.4816     556.4130   1422.74658     724.4816     556.4130
   1422.73132     723.4211     555.3085   1422.73132     723.4211     555.3085
   1422.71606     723.9237     555.3118   1422.71606     723.9237     555.3118
   1422.70081     723.2428     554.2508   1422.70081     723.2428     554.2508
   1422.68555     722.5635     553.5074   1422.68555     722.5635     553.5074
   1422.67029     723.6582     552.5416   1422.67029     723.6582     552.5416
   1422.65503     722.1797     552.5239   1422.65503     722.1797     552.5239
   1422.63977     721.4798     551.1083   1422.63977     721.4798     551.1083
   1422.62451     721.7847     549.8868   1422.62451     721.7847     549.8868
   1422.60925     722.6155     549.7187   1422.60925     722.6155     549.7187
   1422.59399     721.2462     549.1357   1422.59399     721.2462     549.1357
   1422.57874     721.4371     548.6400   1422.57874     721.4371     548.6400
   1422.56348     721.5920     547.0762   1422.56348     721.5920     547.0762
   1422.54822     722.1383     546.4293   1422.54822     722.1383     546.4293
   1422.53296     719.4389     545.5419   1422.53296     719.4389     545.5419
   1422.51770     720.5131     544.3522   1422.51770     720.5131     544.3522
   1422.50244     720.4576     544.6425   1422.50244     720.4576     544.6425
   1422.48718     721.3788     543.0188   1422.48718     721.3788     543.0188
   1422.47192     719.5192     541.6786   1422.47192     719.5192     541.6786
   1422.45667     720.3064     542.3165   1422.45667     720.3064     542.3165
   1422.44141     718.9726     541.2128   1422.44141     718.9726     541.2128
   1422.42615     719.3437     539.5445   1422.42615     719.3437     539.5445
   1422.41089     720.1504     539.3358   1422.41089     720.1504     539.3358
   1422.39563     720.0588     537.7203   1422.39563     720.0588     537.7203
   1422.38037     718.7936     537.1536   1422.38037     718.7936     537.1536
   1422.36511     718.0347     536.3691   1422.36511     718.0347     536.3691
   1422.34985     719.6921     535.4777   1422.34985     719.6921     535.4777
   1422.33459     718.4641     534.4484   1422.33459     718.4641     534.4484
   1422.31934     717.7932     534.2800   1422.31934     717.7932     534.2800
   1422.30408     718.6679     533.3367   1422.30408     718.6679     533.3367
   1422.28882     718.6607     532.2479   1422.28882     718.6607     532.2479
   1422.27356     718.2670     530.5276   1422.27356     718.2670     530.5276
   1422.25830     718.2347     530.8703   1422.25830     718.2347     530.8703
   1422.24304     718.2184     530.5402   1422.24304     718.2184     530.5402
   1422.22778     719.0474     528.2466   1422.22778     719.0474     528.2466
   1422.21252     717.5175     527.1335   1422.21252     717.5175     527.1335
   1422.19727     718.4366     527.2156   1422.19727     718.4366     527.2156
   1422.18201     717.5779     525.5335   1422.18201     717.5779     525.5335
   1422.16675     718.8067     525.1655   1422.16675     718.8067     525.1655
   1422.15149     717.6725     524.1925   1422.15149     717.6725     524.1925
   1422.13623     718.2164     524.1824   1422.13623     718.2164     524.1824
   1422.12097     718.1229     522.9732   1422.12097     718.1229     522.9732
   1422.10571     717.1910     521.6126   1422.10571     717.1910     521.6126
   1422.09045     717.3236     521.1018   1422.09045     717.3236     521.1018
   1422.07520     717.9048     518.8904   1422.07520     717.9048     518.8904
   1422.05994     717.5724     519.2695   1422.05994     717.5724     519.2695
   1422.04468     716.9653     518.2677   1422.04468     716.9653     518.2677
   1422.02942     717.1995     516.6942   1422.02942     717.1995     516.6942
   1422.01416     717.5078     517.0006   1422.01416     717.5078     517.0006
   1421.99890     717.1292     515.4025   1421.99890     717.1292     515.4025
   1421.98364     716.3582     513.9907   1421.98364     716.3582     513.9907
   1421.96838     716.1863     513.6954   1421.96838     716.1863     513.6954
   1421.95312     716.0634     512.7068   1421.95312     716.0634     512.7068
   1421.93787     716.7277     510.8598   1421.93787     716.7277     510.8598
   1421.92261     716.1822     509.6766   1421.92261     716.1822     509.6766
   1421.90735     716.6686     510.3444   1421.90735     716.6686     510.3444
   1421.89209     715.8770     509.0111   1421.89209     715.8770     509.0111
   1421.87683     716.5911     507.5617   1421.87683     716.5911     507.5617
   1421.86157     716.9911     507.4741   1421.86157     716.9911     507.4741
   1421.84631     716.2054     506.1139   1421.84631     716.2054     506.1139
   1421.83105     715.6526     505.0646   1421.83105     715.6526     505.0646
   1421.81580     715.0987     504.0716   1421.81580     715.0987     504.0716
   1421.80054     715.5098     502.8548   1421.80054     715.5098     502.8548
   1421.78528     716.1437     501.8035   1421.78528     716.1437     501.8035
   1421.77002     715.9176     501.5432   1421.77002     715.9176     501.5432
   1421.75476     714.8270     500.4198   1421.75476     714.8270     500.4198
   1421.73950     715.4858     499.5641   1421.73950     715.4858     499.5641
   1421.72424     715.8984     498.8986   1421.72424     715.8984     498.8986
   1421.70898     715.6521     498.0017   1421.70898     715.6521     498.0017
   1421.69373     715.2244     496.6705   1421.69373     715.2244     496.6705
   1421.67847     715.5917     495.3076   1421.67847     715.5917     495.3076
   1421.66321     715.0528     494.5623   1421.66321     715.0528     494.5623
   1421.64795     715.8008     494.0816   1421.64795     715.8008     494.0816
   1421.63269     715.2847     492.6348   1421.63269     715.2847     492.6348
   1421.61743     715.2496     491.9076   1421.61743     715.2496     491.9076
   1421.60217     714.9583     490.2574   1421.60217     714.9583     490.2574
   1421.58691     714.1005     489.3846   1421.58691     714.1005     489.3846
   1421.57166     714.9944     488.4569   1421.57166     714.9944     488.4569
   1421.55640     714.6776     487.6501   1421.55640     714.6776     487.6501
   1421.54114     714.2761     486.9293   1421.54114     714.2761     486.9293
   1421.52588     714.1950     484.7824   1421.52588     714.1950     484.7824
   1421.51062     715.8718     483.9038   1421.51062     715.8718     483.9038
   1421.49536     714.1277     483.4181   1421.49536     714.1277     483.4181
   1421.48010     715.5983     483.0338   1421.48010     715.5983     483.0338
   1421.46484     715.1601     481.2732   1421.46484     715.1601     481.2732
   1421.44958     714.0541     480.8225   1421.44958     714.0541     480.8225
   1421.43433     713.6774     479.7241   1421.43433     713.6774     479.7241
   1421.41907     714.3873     477.9417   1421.41907     714.3873     477.9417
   1421.40381     713.4460     477.9848   1421.40381     713.4460     477.9848
   1421.38855     712.8218     477.1380   1421.38855     712.8218     477.1380
   1421.37329     714.2318     474.9481   1421.37329     714.2318     474.9481
   1421.35803     713.3825     474.0564   1421.35803     713.3825     474.0564
   1421.34277     713.3464     474.0207   1421.34277     713.3464     474.0207
   1421.32751     714.0460     472.5188   1421.32751     714.0460     472.5188
   1421.31226     713.5969     471.4734   1421.31226     713.5969     471.4734
   1421.29700     712.5773     471.5268   1421.29700     712.5773     471.5268
   1421.28174     713.9675     470.0663   1421.28174     713.9675     470.0663
   1421.26648     713.5359     468.9610   1421.26648     713.5359     468.9610
   1421.25122     711.7842     467.6647   1421.25122     711.7842     467.6647
   1421.23596     712.9446     466.9625   1421.23596     712.9446     466.9625
   1421.22070     712.9485     466.2372   1421.22070     712.9485     466.2372
   1421.20544     712.5368     465.5349   1421.20544     712.5368     465.5349
   1421.19019     711.8544     464.5443   1421.19019     711.8544     464.5443
   1421.17493     712.8260     463.6211   1421.17493     712.8260     463.6211
   1421.15967     712.9557     462.7408   1421.15967     712.9557     462.7408
   1421.14441     713.0992     461.4056   1421.14441     713.0992     461.4056
   1421.12915     712.7337     461.0823   1421.12915     712.7337     461.0823
   1421.11389     711.7752     460.1239   1421.11389     711.7752     460.1239
   1421.09863     712.4305     458.8229   1421.09863     712.4305     458.8229
   1421.08337     713.8527     458.4883   1421.08337     713.8527     458.4883
   1421.06812     713.4883     457.1931   1421.06812     713.4883     457.1931
   1421.05286     714.3411     456.5647   1421.05286     714.3411     456.5647
   1421.03760     714.0294     456.9496   1421.03760     714.0294     456.9496
   1421.02234     713.4413     454.9670   1421.02234     713.4413     454.9670
   1421.00708     714.6339     454.4788   1421.00708     714.6339     454.4788
   1420.99182     714.8243     453.8513   1420.99182     714.8243     453.8513
   1420.97656     713.9639     453.4198   1420.97656     713.9639     453.4198
   1420.96130     714.2659     453.2831   1420.96130     714.2659     453.2831
   1420.94604     714.9235     452.0214   1420.94604     714.9235     452.0214
   1420.93079     714.9786     451.7478   1420.93079     714.9786     451.7478
   1420.91553     716.5494     451.1328   1420.91553     716.5494     451.1328
   1420.90027     717.6046     450.9289   1420.90027     717.6046     450.9289
   1420.88501     716.9756     450.2814   1420.88501     716.9756     450.2814
   1420.86975     718.5375     449.4370   1420.86975     718.5375     449.4370
   1420.85449     719.7552     448.9930   1420.85449     719.7552     448.9930
   1420.83923     721.0156     449.5351   1420.83923     721.0156     449.5351
   1420.82397     723.5306     450.0033   1420.82397     723.5306     450.0033
   1420.80872     728.3687     451.7828   1420.80872     728.3687     451.7828
   1420.79346     738.8401     457.5230   1420.79346     738.8401     457.5230
   1420.77820     754.6003     466.7061   1420.77820     754.6003     466.7061
   1420.76294     768.1381     472.9108   1420.76294     768.1381     472.9108
   1420.74768     766.7717     471.2194   1420.74768     766.7717     471.2194
   1420.73242     770.5015     472.2337   1420.73242     770.5015     472.2337
   1420.71716     793.2481     487.5979   1420.71716     793.2481     487.5979
   1420.70190     813.6197     496.9718   1420.70190     813.6197     496.9718
   1420.68665     826.3862     504.3069   1420.68665     826.3862     504.3069
   1420.67139     840.4534     510.5268   1420.67139     840.4534     510.5268
   1420.65613     877.6075     531.5394   1420.65613     877.6075     531.5394
   1420.64087     961.9575     580.0198   1420.64087     961.9575     580.0198
   1420.62561    1146.6931     690.7673   1420.62561    1146.6931     690.7673
   1420.61035    1486.3367     887.3735   1420.61035    1486.3367     887.3735
   1420.59509    1794.9514    1069.6455   1420.59509    1794.9514    1069.6455
   1420.57983    1872.9531    1113.9987   1420.57983    1872.9531    1113.9987
   1420.56458    1752.3551    1040.3749   1420.56458    1752.3551    1040.3749
   1420.54932    1991.2484    1176.5808   1420.54932    1991.2484    1176.5808
   1420.53406    2418.6655    1423.8896   1420.53406    2418.6655    1423.8896
   1420.51880    2610.5293    1532.3518   1420.51880    2610.5293    1532.3518
   1420.50354    2597.0530    1524.0455   1420.50354    2597.0530    1524.0455
   1420.48828    2363.3003    1385.2791   1420.48828    2363.3003    1385.2791
   1420.47302    2184.5229    1277.1763   1420.47302    2184.5229    1277.1763
   1420.45776    2167.5364    1267.8387   1420.45776    2167.5364    1267.8387
   1420.44250    2047.2841    1192.1960   1420.44250    2047.2841    1192.1960
   1420.42725    1727.2869    1007.6144   1420.42725    1727.2869    1007.6144
   1420.41199    1685.0325     983.2899   1420.41199    1685.0325     983.2899
   1420.39673    1864.3508    1084.8708   1420.39673    1864.3508    1084.8708
   1420.38147    1772.2111    1026.9996   1420.38147    1772.2111    1026.9996
   1420.36621    1554.2567     903.7518   1420.36621    1554.2567     903.7518
   1420.35095    1404.1758     815.3239   1420.35095    1404.1758     815.3239
   1420.33569    1103.6644     643.4508   1420.33569    1103.6644     643.4508
   1420.32043     888.5071     518.9833   1420.32043     888.5071     518.9833
   1420.30518     818.6179     477.0192   1420.30518     818.6179     477.0192
   1420.28992     779.1475     455.9289   1420.28992     779.1475     455.9289
   1420.27466     755.1714     440.4353   1420.27466     755.1714     440.4353
   1420.25940     738.4393     431.0838   1420.25940     738.4393     431.0838
   1420.24414     727.7519     424.4320   1420.24414     727.7519     424.4320
   1420.22888     720.7647     419.2645   1420.22888     720.7647     419.2645
   1420.21362     716.5178     415.6054   1420.21362     716.5178     415.6054
   1420.19836     712.5515     413.1824   1420.19836     712.5515     413.1824
   1420.18311     710.1550     410.9767   1420.18311     710.1550     410.9767
   1420.16785     708.0815     409.8645   1420.16785     708.0815     409.8645
   1420.15259     706.6415     408.1254   1420.15259     706.6415     408.1254
   1420.13733     705.6625     406.2278   1420.13733     705.6625     406.2278
   1420.12207     705.2596     405.6641   1420.12207     705.2596     405.6641
   1420.10681     703.0776     404.9028   1420.10681     703.0776     404.9028
   1420.09155     703.0826     403.5779   1420.09155     703.0826     403.5779
   1420.07629     702.7077     403.0304   1420.07629     702.7077     403.0304
   1420.06104     702.4559     401.6205   1420.06104     702.4559     401.6205
   1420.04578     701.5794     400.9404   1420.04578     701.5794     400.9404
   1420.03052     700.7827     400.7180   1420.03052     700.7827     400.7180
   1420.01526     701.6432     400.9332   1420.01526     701.6432     400.9332
   1420.00000     703.0363     401.3293   1420.00000     703.0363     401.3293
   1419.98474     704.4293     401.7253   1419.98474     704.4293     401.7253
   1419.96948     703.0566     399.1704   1419.96948     703.0566     399.1704
   1419.95422     700.0585     397.8469   1419.95422     700.0585     397.8469
   1419.93896     700.6425     396.8799   1419.93896     700.6425     396.8799
   1419.92371     700.8224     395.8096   1419.92371     700.8224     395.8096
   1419.90845     701.2628     395.7048   1419.90845     701.2628     395.7048
   1419.89319     700.1403     395.6763   1419.89319     700.1403     395.6763
   1419.87793     699.4897     393.9453   1419.87793     699.4897     393.9453
   1419.86267     701.2528     393.8071   1419.86267     701.2528     393.8071
   1419.84741     700.5339     393.4493   1419.84741     700.5339     393.4493
   1419.83215     700.7118     392.8033   1419.83215     700.7118     392.8033
   1419.81689     700.7548     392.1258   1419.81689     700.7548     392.1258
   1419.80164     699.7631     391.7197   1419.80164     699.7631     391.7197
   1419.78638     701.0840     391.4656   1419.78638     701.0840     391.4656
   1419.77112     700.6777     391.1304   1419.77112     700.6777     391.1304
   1419.75586     701.2792     391.0132   1419.75586     701.2792     391.0132
   1419.74060     700.9490     390.3737   1419.74060     700.9490     390.3737
   1419.72534     701.2371     389.8547   1419.72534     701.2371     389.8547
   1419.71008     700.7020     389.7104   1419.71008     700.7020     389.7104
   1419.69482     701.0745     389.4370   1419.69482     701.0745     389.4370
   1419.67957     701.5621     389.3856   1419.67957     701.5621     389.3856
   1419.66431     700.7320     388.0027   1419.66431     700.7320     388.0027
   1419.64905     702.5333     387.8539   1419.64905     702.5333     387.8539
   1419.63379     702.1760     387.6902   1419.63379     702.1760     387.6902
   1419.61853     702.3159     387.7238   1419.61853     702.3159     387.7238
   1419.60327     702.6789     387.4520   1419.60327     702.6789     387.4520
   1419.58801     703.3512     387.2508   1419.58801     703.3512     387.2508
   1419.57275     703.4505     386.5483   1419.57275     703.4505     386.5483
   1419.55750     703.2540     386.2891   1419.55750     703.2540     386.2891
   1419.54224     703.3146     385.8313   1419.54224     703.3146     385.8313
   1419.52698     704.2343     385.2327   1419.52698     704.2343     385.2327
   1419.51172     704.1031     385.4445   1419.51172     704.1031     385.4445
   1419.49646     704.0895     385.3111   1419.49646     704.0895     385.3111
   1419.48120     703.1713     385.2901   1419.48120     703.1713     385.2901
   1419.46594     703.7758     384.7654   1419.46594     703.7758     384.7654
   1419.45068     704.7539     384.8557   1419.45068     704.7539     384.8557
   1419.43542     705.1019     384.4903   1419.43542     705.1019     384.4903
   1419.42017     705.0336     384.2152   1419.42017     705.0336     384.2152
   1419.40491     705.0714     384.0046   1419.40491     705.0714     384.0046
   1419.38965     706.1614     384.3894   1419.38965     706.1614     384.3894
   1419.37439     706.8365     383.9192   1419.37439     706.8365     383.9192
   1419.35913     707.2280     383.4778   1419.35913     707.2280     383.4778
   1419.34387     707.5239     383.8000   1419.34387     707.5239     383.8000
   1419.32861     706.9420     382.3618   1419.32861     706.9420     382.3618
   1419.31335     707.2974     383.1195   1419.31335     707.2974     383.1195
   1419.29810     707.4642     382.9276   1419.29810     707.4642     382.9276
   1419.28284     707.6550     382.7984   1419.28284     707.6550     382.7984
   1419.26758     708.9550     382.9391   1419.26758     708.9550     382.9391
   1419.25232     708.4320     382.4594   1419.25232     708.4320     382.4594
   1419.23706     708.7335     382.6433   1419.23706     708.7335     382.6433
   1419.22180     710.3007     382.2740   1419.22180     710.3007     382.2740
   1419.20654     709.9868     383.1531   1419.20654     709.9868     383.1531
   1419.19128     709.3757     382.9129   1419.19128     709.3757     382.9129
   1419.17603     710.0980     382.6151   1419.17603     710.0980     382.6151
   1419.16077     711.6329     382.8726   1419.16077     711.6329     382.8726
   1419.14551     711.1527     382.3049   1419.14551     711.1527     382.3049
   1419.13025     712.4820     382.6744   1419.13025     712.4820     382.6744
   1419.11499     710.9219     383.0094   1419.11499     710.9219     383.0094
   1419.09973     712.7101     383.0898   1419.09973     712.7101     383.0898
   1419.08447     712.7349     382.0419   1419.08447     712.7349     382.0419
   1419.06921     713.4875     381.9218   1419.06921     713.4875     381.9218
   1419.05396     714.1645     382.9735   1419.05396     714.1645     382.9735
   1419.03870     714.5544     382.1469   1419.03870     714.5544     382.1469
   1419.02344     715.5003     382.6127   1419.02344     715.5003     382.6127
   1419.00818     715.1721     382.7915   1419.00818     715.1721     382.7915
   1418.99292     716.1145     382.6932   1418.99292     716.1145     382.6932
   1418.97766     716.7841     382.8902   1418.97766     716.7841     382.8902
   1418.96240     716.0521     383.2213   1418.96240     716.0521     383.2213
   1418.94714     717.8552     383.6306   1418.94714     717.8552     383.6306
   1418.93188     718.3988     383.7275   1418.93188     718.3988     383.7275
   1418.91663     717.9924     383.4232   1418.91663     717.9924     383.4232
   1418.90137     718.1891     384.3978   1418.90137     718.1891     384.3978
   1418.88611     719.5585     383.7544   1418.88611     719.5585     383.7544
   1418.87085     719.8432     383.9358   1418.87085     719.8432     383.9358
   1418.85559     720.6964     384.3553   1418.85559     720.6964     384.3553
   1418.84033     721.2145     384.4798   1418.84033     721.2145     384.4798
   1418.82507     721.7842     384.8935   1418.82507     721.7842     384.8935
   1418.80981     721.7169     385.1960   1418.80981     721.7169     385.1960
   1418.79456     723.8412     384.3236   1418.79456     723.8412     384.3236
   1418.77930     724.2437     385.6490   1418.77930     724.2437     385.6490
   1418.76404     723.9244     386.5762   1418.76404     723.9244     386.5762
   1418.74878     724.5072     386.8207   1418.74878     724.5072     386.8207
   1418.73352     725.4331     386.3674   1418.73352     725.4331     386.3674
   1418.71826     726.6058     387.1999   1418.71826     726.6058     387.1999
   1418.70300     726.6343     387.0476   1418.70300     726.6343     387.0476
   1418.68774     726.9128     387.5424   1418.68774     726.9128     387.5424
   1418.67249     727.2725     387.8324   1418.67249     727.2725     387.8324
   1418.65723     728.8009     388.3086   1418.65723     728.8009     388.3086
   1418.64197     728.9341     388.6330   1418.64197     728.9341     388.6330
   1418.62671     729.0152     388.7740   1418.62671     729.0152     388.7740
   1418.61145     729.9325     389.0693   1418.61145     729.9325     389.0693
   1418.59619     730.8009     389.1526   1418.59619     730.8009     389.1526
   1418.58093     732.2001     389.4747   1418.58093     732.2001     389.4747
   1418.56567     733.7847     390.0678   1418.56567     733.7847     390.0678
   1418.55042     732.8428     390.6793   1418.55042     732.8428     390.6793
   1418.53516     732.3245     391.3113   1418.53516     732.3245     391.3113
   1418.51990     734.2001     391.3730   1418.51990     734.2001     391.3730
   1418.50464     734.9987     392.4486   1418.50464     734.9987     392.4486
   1418.48938     735.3749     392.3977   1418.48938     735.3749     392.3977
   1418.47412     736.2902     392.9204   1418.47412     736.2902     392.9204
   1418.45886     737.9098     393.3678   1418.45886     737.9098     393.3678
   1418.44360     738.3378     394.0732   1418.44360     738.3378     394.0732
   1418.42834     737.8087     394.3539   1418.42834     737.8087     394.3539
   1418.41309     739.7272     394.9939   1418.41309     739.7272     394.9939
   1418.39783     739.4489     395.3321   1418.39783     739.4489     395.3321
   1418.38257     741.0452     397.0237   1418.38257     741.0452     397.0237
   1418.36731     741.4471     397.0035   1418.36731     741.4471     397.0035
   1418.35205     741.7787     396.9586   1418.35205     741.7787     396.9586
   1418.33679     742.8718     397.9167   1418.33679     742.8718     397.9167
   1418.32153     743.0916     398.2679   1418.32153     743.0916     398.2679
   1418.30627     744.5887     399.0262   1418.30627     744.5887     399.0262
   1418.29102     744.4373     399.0452   1418.29102     744.4373     399.0452
   1418.27576     745.7661     399.3328   1418.27576     745.7661     399.3328
   1418.26050     746.4445     400.4122   1418.26050     746.4445     400.4122
   1418.24524     747.6588     401.8700   1418.24524     747.6588     401.8700
   1418.22998     748.0558     402.6367   1418.22998     748.0558     402.6367
   1418.21472     748.3488     402.8302   1418.21472     748.3488     402.8302
   1418.19946     749.8817     403.1660   1418.19946     749.8817     403.1660
   1418.18420     749.2596     405.0110   1418.18420     749.2596     405.0110
   1418.16895     751.6570     404.7053   1418.16895     751.6570     404.7053
   1418.15369     752.9296     405.1758   1418.15369     752.9296     405.1758
   1418.13843     752.0927     406.6048   1418.13843     752.0927     406.6048
   1418.12317     753.4456     406.7953   1418.12317     753.4456     406.7953
   1418.10791     755.1157     407.7125   1418.10791     755.1157     407.7125
   1418.09265     755.7268     408.4912   1418.09265     755.7268     408.4912
   1418.07739     754.3607     409.1382   1418.07739     754.3607     409.1382
   1418.06213     756.8467     409.9001   1418.06213     756.8467     409.9001
   1418.04688     757.5543     410.5514   1418.04688     757.5543     410.5514
   1418.03162     757.4838     412.2150   1418.03162     757.4838     412.2150
   1418.01636     759.1810     412.6791   1418.01636     759.1810     412.6791
   1418.00110     760.6953     412.8291   1418.00110     760.6953     412.8291
   1417.98584     759.9553     414.8513   1417.98584     759.9553     414.8513
   1417.97058     761.1942     415.0119   1417.97058     761.1942     415.0119
   1417.95532     763.1602     415.5128   1417.95532     763.1602     415.5128
   1417.94006     762.9669     415.9470   1417.94006     762.9669     415.9470
   1417.92480     764.0927     417.4139   1417.92480     764.0927     417.4139
   1417.90955     765.2715     417.7740   1417.90955     765.2715     417.7740
   1417.89429     765.2366     418.4837   1417.89429     765.2366     418.4837
   1417.87903     766.9913     419.7180   1417.87903     766.9913     419.7180
   1417.86377     767.6500     420.3533   1417.86377     767.6500     420.3533
   1417.84851     769.1588     421.7205   1417.84851     769.1588     421.7205
   1417.83325     768.4456     422.5486   1417.83325     768.4456     422.5486
   1417.81799     771.2819     423.8120   1417.81799     771.2819     423.8120
   1417.80273     770.5756     424.4198   1417.80273     770.5756     424.4198
   1417.78748     770.8813     425.4012   1417.78748     770.8813     425.4012
   1417.77222     772.1747     426.3990   1417.77222     772.1747     426.3990
   1417.75696     774.9747     427.3445   1417.75696     774.9747     427.3445
   1417.74170     774.1992     427.6742   1417.74170     774.1992     427.6742
   1417.72644     774.3837     429.4156   1417.72644     774.3837     429.4156
   1417.71118     775.0021     430.2633   1417.71118     775.0021     430.2633
   1417.69592     775.9658     431.0520   1417.69592     775.9658     431.0520
   1417.68066     777.5701     431.9591   1417.68066     777.5701     431.9591
   1417.66541     778.4611     432.6451   1417.66541     778.4611     432.6451
   1417.65015     779.1742     434.1436   1417.65015     779.1742     434.1436
   1417.63489     780.5627     434.8302   1417.63489     780.5627     434.8302
   1417.61963     780.9111     435.3755   1417.61963     780.9111     435.3755
   1417.60437     781.3083     436.1317   1417.60437     781.3083     436.1317
   1417.58911     783.7178     438.5266   1417.58911     783.7178     438.5266
   1417.57385     783.9443     439.2742   1417.57385     783.9443     439.2742
   1417.55859     783.7019     439.8501   1417.55859     783.7019     439.8501
   1417.54333     785.4380     440.7600   1417.54333     785.4380     440.7600
   1417.52808     785.4548     441.9988   1417.52808     785.4548     441.9988
   1417.51282     786.6302     443.3759   1417.51282     786.6302     443.3759
   1417.49756     786.1078     444.3559   1417.49756     786.1078     444.3559
   1417.48230     788.9899     445.2365   1417.48230     788.9899     445.2365
   1417.46704     787.0874     446.0071   1417.46704     787.0874     446.0071
   1417.45178     791.1653     446.8075   1417.45178     791.1653     446.8075
   1417.43652     790.4119     448.5817   1417.43652     790.4119     448.5817
   1417.42126     790.9756     449.4930   1417.42126     790.9756     449.4930
   1417.40601     791.7899     450.3565   1417.40601     791.7899     450.3565
   1417.39075     792.4369     451.9854   1417.39075     792.4369     451.9854
   1417.37549     793.3860     453.2654   1417.37549     793.3860     453.2654
   1417.36023     793.2998     453.6361   1417.36023     793.2998     453.6361
   1417.34497     795.4825     454.6329   1417.34497     795.4825     454.6329
   1417.32971     795.5005     455.9061   1417.32971     795.5005     455.9061
   1417.31445     796.5096     456.9107   1417.31445     796.5096     456.9107
   1417.29919     797.5758     458.4899   1417.29919     797.5758     458.4899
   1417.28394     796.9315     459.2166   1417.28394     796.9315     459.2166
   1417.26868     797.6159     460.7275   1417.26868     797.6159     460.7275
   1417.25342     798.6085     462.0117   1417.25342     798.6085     462.0117
   1417.23816     798.1244     462.5930   1417.23816     798.1244     462.5930
   1417.22290     799.8393     463.6574   1417.22290     799.8393     463.6574
   1417.20764     800.7036     464.6357   1417.20764     800.7036     464.6357
   1417.19238     801.3260     466.1864   1417.19238     801.3260     466.1864
   1417.17712     801.7448     466.9397   1417.17712     801.7448     466.9397
   1417.16187     802.6481     468.1163   1417.16187     802.6481     468.1163
   1417.14661     802.2858     469.5475   1417.14661     802.2858     469.5475
   1417.13135     803.9886     470.2912   1417.13135     803.9886     470.2912
   1417.11609     804.7551     471.3240   1417.11609     804.7551     471.3240
   1417.10083     804.4427     473.5055   1417.10083     804.4427     473.5055
   1417.08557     805.7850     473.8549   1417.08557     805.7850     473.8549
   1417.07031     805.4230     474.8041   1417.07031     805.4230     474.8041
   1417.05505     806.0293     476.3511   1417.05505     806.0293     476.3511
   1417.03979     806.0712     477.4865   1417.03979     806.0712     477.4865
   1417.02454     807.4207     479.0943   1417.02454     807.4207     479.0943
   1417.00928     807.2800     479.8068   1417.00928     807.2800     479.8068
   1416.99402     808.5023     480.2185   1416.99402     808.5023     480.2185
   1416.97876     808.4146     481.8928   1416.97876     808.4146     481.8928
   1416.96350     808.3788     482.9658   1416.96350     808.3788     482.9658
   1416.94824     808.8009     483.9137   1416.94824     808.8009     483.9137
   1416.93298     811.0549     484.6888   1416.93298     811.0549     484.6888
   1416.91772     810.3809     486.0158   1416.91772     810.3809     486.0158
   1416.90247     811.1013     487.1933   1416.90247     811.1013     487.1933
   1416.88721     811.5646     487.6830   1416.88721     811.5646     487.6830
   1416.87195     812.3124     488.7331   1416.87195     812.3124     488.7331
   1416.85669     812.4835     490.0165   1416.85669     812.4835     490.0165
   1416.84143     812.8324     491.3146   1416.84143     812.8324     491.3146
   1416.82617     813.2029     491.4993   1416.82617     813.2029     491.4993
   1416.81091     813.1135     492.5700   1416.81091     813.1135     492.5700
   1416.79565     812.5216     493.7601   1416.79565     812.5216     493.7601
   1416.78040     814.1161     494.6916   1416.78040     814.1161     494.6916
   1416.76514     814.0753     494.9262   1416.76514     814.0753     494.9262
   1416.74988     813.1664     496.6435   1416.74988     813.1664     496.6435
   1416.73462     814.3162     497.0777   1416.73462     814.3162     497.0777
   1416.71936     814.5853     498.6600   1416.71936     814.5853     498.6600
   1416.70410     813.2950     499.7792   1416.70410     813.2950     499.7792
   1416.68884     814.0720     498.9943   1416.68884     814.0720     498.9943
   1416.67358     813.1598     500.4059   1416.67358     813.1598     500.4059
   1416.65833     813.7661     502.2258   1416.65833     813.7661     502.2258
   1416.64307     813.7430     502.8463   1416.64307     813.7430     502.8463
   1416.62781     815.1003     503.5433   1416.62781     815.1003     503.5433
   1416.61255     815.3672     504.5802   1416.61255     815.3672     504.5802
   1416.59729     815.5828     505.5188   1416.59729     815.5828     505.5188
   1416.58203     814.6696     506.5542   1416.58203     814.6696     506.5542
   1416.56677     815.0294     507.4911   1416.56677     815.0294     507.4911
   1416.55151     814.9467     507.1208   1416.55151     814.9467     507.1208
   1416.53625     815.8795     508.6125   1416.53625     815.8795     508.6125
   1416.52100     815.3379     508.5779   1416.52100     815.3379     508.5779
   1416.50574     814.7141     509.9938   1416.50574     814.7141     509.9938
   1416.49048     815.2961     509.7593   1416.49048     815.2961     509.7593
   1416.47522     814.5040     511.0069   1416.47522     814.5040     511.0069
   1416.45996     814.5494     511.5223   1416.45996     814.5494     511.5223
   1416.44470     814.4265     512.1425   1416.44470     814.4265     512.1425
   1416.42944     813.9366     513.2219   1416.42944     813.9366     513.2219
   1416.41418     814.1746     513.4905   1416.41418     814.1746     513.4905
   1416.39893     814.0414     514.5507   1416.39893     814.0414     514.5507
   1416.38367     812.9474     514.7798   1416.38367     812.9474     514.7798
   1416.36841     812.6242     515.4290   1416.36841     812.6242     515.4290
   1416.35315     813.7620     515.2162   1416.35315     813.7620     515.2162
   1416.33789     812.4095     516.3997   1416.33789     812.4095     516.3997
   1416.32263     811.5795     515.9363   1416.32263     811.5795     515.9363
   1416.30737     811.9303     518.7173   1416.30737     811.9303     518.7173
   1416.29211     811.4242     517.8644   1416.29211     811.4242     517.8644
   1416.27686     811.2823     517.8210   1416.27686     811.2823     517.8210
   1416.26160     810.7339     518.3871   1416.26160     810.7339     518.3871
   1416.24634     810.2361     519.2737   1416.24634     810.2361     519.2737
   1416.23108     809.7668     518.5819   1416.23108     809.7668     518.5819
   1416.21582     809.8035     519.9114   1416.21582     809.8035     519.9114
   1416.20056     809.3515     519.5659   1416.20056     809.3515     519.5659
   1416.18530     809.3461     519.7596   1416.18530     809.3461     519.7596
   1416.17004     808.7454     520.0064   1416.17004     808.7454     520.0064
   1416.15479     807.8847     520.3942   1416.15479     807.8847     520.3942
   1416.13953     807.4753     520.4746   1416.13953     807.4753     520.4746
   1416.12427     806.3845     521.1572   1416.12427     806.3845     521.1572
   1416.10901     805.4231     521.1206   1416.10901     805.4231     521.1206
   1416.09375     805.8922     522.6356   1416.09375     805.8922     522.6356
   1416.07849     806.6388     522.3968   1416.07849     806.6388     522.3968
   1416.06323     804.8479     522.4879   1416.06323     804.8479     522.4879
   1416.04797     804.4802     522.3516   1416.04797     804.4802     522.3516
   1416.03271     803.6943     521.9385   1416.03271     803.6943     521.9385
   1416.01746     802.4521     521.7275   1416.01746     802.4521     521.7275
   1416.00220     801.6839     522.4343   1416.00220     801.6839     522.4343
   1415.98694     801.9198     522.5576   1415.98694     801.9198     522.5576
   1415.97168     801.6031     522.2938   1415.97168     801.6031     522.2938
   1415.95642     799.1071     523.4889   1415.95642     799.1071     523.4889
   1415.94116     800.2715     522.7483   1415.94116     800.2715     522.7483
   1415.92590     800.2538     522.8887   1415.92590     800.2538     522.8887
   1415.91064     798.8089     522.7141   1415.91064     798.8089     522.7141
   1415.89539     795.7211     521.9510   1415.89539     795.7211     521.9510
   1415.88013     795.9991     523.3060   1415.88013     795.9991     523.3060
   1415.86487     796.2296     522.4130   1415.86487     796.2296     522.4130
   1415.84961     795.2486     522.4531   1415.84961     795.2486     522.4531
   1415.83435     795.0198     522.9724   1415.83435     795.0198     522.9724
   1415.81909     793.1051     523.0237   1415.81909     793.1051     523.0237
   1415.80383     792.8689     524.0689   1415.80383     792.8689     524.0689
   1415.78857     792.0287     522.4413   1415.78857     792.0287     522.4413
   1415.77332     791.2101     523.1852   1415.77332     791.2101     523.1852
   1415.75806     791.5720     522.8497   1415.75806     791.5720     522.8497
   1415.74280     789.4210     522.3130   1415.74280     789.4210     522.3130
   1415.72754     788.2870     522.4570   1415.72754     788.2870     522.4570
   1415.71228     787.8505     521.5989   1415.71228     787.8505     521.5989
   1415.69702     788.0671     520.8507   1415.69702     788.0671     520.8507
   1415.68176     786.1536     521.1741   1415.68176     786.1536     521.1741
   1415.66650     784.4751     521.7202   1415.66650     784.4751     521.7202
   1415.65125     783.8232     521.6725   1415.65125     783.8232     521.6725
   1415.63599     783.7374     520.9467   1415.63599     783.7374     520.9467
   1415.62073     781.4702     521.0400   1415.62073     781.4702     521.0400
   1415.60547     780.6390     521.0685   1415.60547     780.6390     521.0685
   1415.59021     778.9665     520.4512   1415.59021     778.9665     520.4512
   1415.57495     777.8467     519.5351   1415.57495     777.8467     519.5351
   1415.55969     779.9006     519.8097   1415.55969     779.9006     519.8097
   1415.54443     777.2413     520.0989   1415.54443     777.2413     520.0989
   1415.52917     776.3456     519.9199   1415.52917     776.3456     519.9199
   1415.51392     775.1152     519.6393   1415.51392     775.1152     519.6393
   1415.49866     774.3577     519.1083   1415.49866     774.3577     519.1083
   1415.48340     772.8535     519.2222   1415.48340     772.8535     519.2222
   1415.46814     771.4812     517.6065   1415.46814     771.4812     517.6065
   1415.45288     770.4409     519.0580   1415.45288     770.4409     519.0580
   1415.43762     770.6527     517.5377   1415.43762     770.6527     517.5377
   1415.42236     769.3455     517.6955   1415.42236     769.3455     517.6955
   1415.40710     767.7687     516.8640   1415.40710     767.7687     516.8640
   1415.39185     766.3910     517.5469   1415.39185     766.3910     517.5469
   1415.37659     765.9026     516.5589   1415.37659     765.9026     516.5589
   1415.36133     764.0304     515.3095   1415.36133     764.0304     515.3095
   1415.34607     762.8599     515.6686   1415.34607     762.8599     515.6686
   1415.33081     763.3008     515.2968   1415.33081     763.3008     515.2968
   1415.31555     760.9662     514.3839   1415.31555     760.9662     514.3839
   1415.30029     759.0602     513.6436   1415.30029     759.0602     513.6436
   1415.28503     758.9221     514.0884   1415.28503     758.9221     514.0884
   1415.26978     756.8186     512.8412   1415.26978     756.8186     512.8412
   1415.25452     756.4711     512.6733   1415.25452     756.4711     512.6733
   1415.23926     753.0435     512.5022   1415.23926     753.0435     512.5022
   1415.22400     753.4365     511.3938   1415.22400     753.4365     511.3938
   1415.20874     751.7907     510.3474   1415.20874     751.7907     510.3474
   1415.19348     751.6938     510.8646   1415.19348     751.6938     510.8646
   1415.17822     749.6470     509.7589   1415.17822     749.6470     509.7589
   1415.16296     748.1608     509.3076   1415.16296     748.1608     509.3076
   1415.14771     746.4018     508.4403   1415.14771     746.4018     508.4403
   1415.13245     744.0959     508.6693   1415.13245     744.0959     508.6693
   1415.11719     743.5264     507.3781   1415.11719     743.5264     507.3781
   1415.10193     741.6772     507.2943   1415.10193     741.6772     507.2943
   1415.08667     740.0579     506.8507   1415.08667     740.0579     506.8507
   1415.07141     738.5523     506.9771   1415.07141     738.5523     506.9771
   1415.05615     737.6616     504.7379   1415.05615     737.6616     504.7379
   1415.04089     736.9214     504.7554   1415.04089     736.9214     504.7554
   1415.02563     733.5630     504.4227   1415.02563     733.5630     504.4227
   1415.01038     734.0671     503.9964   1415.01038     734.0671     503.9964
   1414.99512     731.9105     502.5750   1414.99512     731.9105     502.5750
   1414.97986     730.4587     502.3580   1414.97986     730.4587     502.3580
   1414.96460     727.7716     501.9632   1414.96460     727.7716     501.9632
   1414.94934     727.4902     501.1349   1414.94934     727.4902     501.1349
   1414.93408     726.6145     500.0770   1414.93408     726.6145     500.0770
   1414.91882     723.7256     498.8086   1414.91882     723.7256     498.8086
   1414.90356     723.1179     498.5587   1414.90356     723.1179     498.5587
   1414.88831     720.8142     497.5097   1414.88831     720.8142     497.5097
   1414.87305     720.0028     496.9423   1414.87305     720.0028     496.9423
   1414.85779     718.0287     496.5509   1414.85779     718.0287     496.5509
   1414.84253     715.3984     494.7316   1414.84253     715.3984     494.7316
   1414.82727     714.2632     495.1989   1414.82727     714.2632     495.1989
   1414.81201     713.2484     494.1157   1414.81201     713.2484     494.1157
   1414.79675     710.5468     492.2652   1414.79675     710.5468     492.2652
   1414.78149     708.2573     492.0828   1414.78149     708.2573     492.0828
   1414.76624     706.9066     491.2341   1414.76624     706.9066     491.2341
   1414.75098     704.4051     490.2393   1414.75098     704.4051     490.2393
   1414.73572     703.8574     489.6123   1414.73572     703.8574     489.6123
   1414.72046     701.5574     488.2296   1414.72046     701.5574     488.2296
   1414.70520     698.8563     487.2387   1414.70520     698.8563     487.2387
   1414.68994     697.9173     485.8907   1414.68994     697.9173     485.8907
   1414.67468     695.9221     485.7957   1414.67468     695.9221     485.7957
   1414.65942     693.9333     484.1985   1414.65942     693.9333     484.1985
   1414.64417     692.6845     483.3973   1414.64417     692.6845     483.3973
   1414.62891     690.5096     481.2317   1414.62891     690.5096     481.2317
   1414.61365     687.1193     481.3451   1414.61365     687.1193     481.3451
   1414.59839     686.0836     480.3151   1414.59839     686.0836     480.3151
   1414.58313     684.1578     479.0889   1414.58313     684.1578     479.0889
   1414.56787     681.4731     477.6546   1414.56787     681.4731     477.6546
   1414.55261     680.7590     476.8567   1414.55261     680.7590     476.8567
   1414.53735     677.0610     476.1363   1414.53735     677.0610     476.1363
   1414.52209     676.1395     475.2911   1414.52209     676.1395     475.2911
   1414.50684     672.9138     473.5494   1414.50684     672.9138     473.5494
   1414.49158     671.3842     471.9297   1414.49158     671.3842     471.9297
   1414.47632     669.0387     471.1604   1414.47632     669.0387     471.1604
   1414.46106     666.8922     470.7028   1414.46106     666.8922     470.7028
   1414.44580     663.3634     468.1953   1414.44580     663.3634     468.1953
   1414.43054     661.7698     467.2245   1414.43054     661.7698     467.2245
   1414.41528     660.6282     466.2973   1414.41528     660.6282     466.2973
   1414.40002     657.4359     465.5399   1414.40002     657.4359     465.5399
   1414.38477     655.4888     464.0916   1414.38477     655.4888     464.0916
   1414.36951     652.3801     462.3925   1414.36951     652.3801     462.3925
   1414.35425     650.6464     461.1134   1414.35425     650.6464     461.1134
   1414.33899     647.9389     459.5293   1414.33899     647.9389     459.5293
   1414.32373     646.6424     458.5557   1414.32373     646.6424     458.5557
   1414.30847     644.2462     457.6801   1414.30847     644.2462     457.6801
   1414.29321     642.0186     455.4542   1414.29321     642.0186     455.4542
   1414.27795     638.9255     454.2694   1414.27795     638.9255     454.2694
   1414.26270     636.5648     452.1156   1414.26270     636.5648     452.1156
   1414.24744     634.2289     450.9012   1414.24744     634.2289     450.9012
   1414.23218     631.9272     449.9580   1414.23218     631.9272     449.9580
   1414.21692     629.1356     448.3383   1414.21692     629.1356     448.3383
   1414.20166     625.9713     446.9087   1414.20166     625.9713     446.9087
   1414.18640     624.1663     445.0197   1414.18640     624.1663     445.0197
   1414.17114     621.5377     443.3365   1414.17114     621.5377     443.3365
   1414.15588     619.1758     442.6659   1414.15588     619.1758     442.6659
   1414.14062     616.8947     440.6068   1414.14062     616.8947     440.6068
   1414.12537     613.9476     439.6357   1414.12537     613.9476     439.6357
   1414.11011     612.0427     438.4411   1414.11011     612.0427     438.4411
   1414.09485     608.3738     436.4604   1414.09485     608.3738     436.4604
   1414.07959     606.1285     435.1611   1414.07959     606.1285     435.1611
   1414.06433     604.3622     434.1041   1414.06433     604.3622     434.1041
   1414.04907     600.6983     431.7752   1414.04907     600.6983     431.7752
   1414.03381     598.2004     430.8489   1414.03381     598.2004     430.8489
   1414.01855     596.0457     428.9823   1414.01855     596.0457     428.9823
   1414.00330     624.4588     436.4210   1414.00330     624.4588     436.4210
   1413.98804     593.1540     425.8538   1413.98804     593.1540     425.8538
   1413.97278     587.6617     423.6564   1413.97278     587.6617     423.6564
   1413.95752     585.7097     422.5488   1413.95752     585.7097     422.5488
   1413.94226     581.1848     421.4300   1413.94226     581.1848     421.4300
   1413.92700     579.5535     418.8995   1413.92700     579.5535     418.8995
   1413.91174     576.7440     417.6115   1413.91174     576.7440     417.6115
   1413.89648     575.2750     415.4742   1413.89648     575.2750     415.4742
   1413.88123     571.5745     414.4657   1413.88123     571.5745     414.4657
   1413.86597     568.5196     413.0759   1413.86597     568.5196     413.0759
   1413.85071     565.0814     410.7633   1413.85071     565.0814     410.7633
   1413.83545     561.9786     408.4899   1413.83545     561.9786     408.4899
   1413.82019     560.2149     407.5469   1413.82019     560.2149     407.5469
   1413.80493     558.4518     405.9035   1413.80493     558.4518     405.9035
   1413.78967     554.3888     403.5560   1413.78967     554.3888     403.5560
   1413.77441     552.0942     401.7360   1413.77441     552.0942     401.7360
   1413.75916     548.6605     400.3762   1413.75916     548.6605     400.3762
   1413.74390     545.9276     399.1730   1413.74390     545.9276     399.1730
   1413.72864     542.7437     397.2960   1413.72864     542.7437     397.2960
   1413.71338     540.4349     395.9838   1413.71338     540.4349     395.9838
   1413.69812     537.4308     393.8229   1413.69812     537.4308     393.8229
   1413.68286     535.3400     392.5107   1413.68286     535.3400     392.5107
   1413.66760     531.9869     389.7906   1413.66760     531.9869     389.7906
   1413.65234     528.5863     388.7563   1413.65234     528.5863     388.7563
   1413.63708     526.7101     387.2983   1413.63708     526.7101     387.2983
   1413.62183     522.9937     385.2220   1413.62183     522.9937     385.2220
   1413.60657     521.0217     382.4851   1413.60657     521.0217     382.4851
   1413.59131     517.9056     382.1389   1413.59131     517.9056     382.1389
   1413.57605     515.6622     380.1890   1413.57605     515.6622     380.1890
   1413.56079     512.0547     378.9534   1413.56079     512.0547     378.9534
   1413.54553     509.7245     376.7164   1413.54553     509.7245     376.7164
   1413.53027     505.8214     375.5904   1413.53027     505.8214     375.5904
   1413.51501     503.9209     373.9844   1413.51501     503.9209     373.9844
   1413.49976     500.6901     372.4617   1413.49976     500.6901     372.4617
   1413.48450     498.8390     370.6091   1413.48450     498.8390     370.6091
   1413.46924     495.2540     368.4909   1413.46924     495.2540     368.4909
   1413.45398     492.6841     367.2384   1413.45398     492.6841     367.2384
   1413.43872     490.3616     366.1119   1413.43872     490.3616     366.1119
   1413.42346     488.0094     363.9527   1413.42346     488.0094     363.9527
   1413.40820     484.8559     362.9617   1413.40820     484.8559     362.9617
   1413.39294     481.8683     361.1746   1413.39294     481.8683     361.1746
   1413.37769     479.3051     358.7375   1413.37769     479.3051     358.7375
   1413.36243     477.0412     357.8302   1413.36243     477.0412     357.8302
   1413.34717     474.1486     356.4982   1413.34717     474.1486     356.4982
   1413.33191     471.5262     355.0217   1413.33191     471.5262     355.0217
   1413.31665     469.3812     353.1222   1413.31665     469.3812     353.1222
   1413.30139     466.7661     351.2034   1413.30139     466.7661     351.2034
   1413.28613     463.3656     350.3637   1413.28613     463.3656     350.3637
   1413.27087     461.3217     348.7969   1413.27087     461.3217     348.7969
   1413.25562     458.4118     347.3191   1413.25562     458.4118     347.3191
   1413.24036     456.5326     345.8564   1413.24036     456.5326     345.8564
   1413.22510     453.9580     344.3390   1413.22510     453.9580     344.3390
   1413.20984     451.2963     343.0483   1413.20984     451.2963     343.0483
   1413.19458     449.5288     341.9514   1413.19458     449.5288     341.9514
   1413.17932     447.3077     340.2670   1413.17932     447.3077     340.2670
   1413.16406     444.3903     338.9415   1413.16406     444.3903     338.9415
   1413.14880     440.9169     337.5489   1413.14880     440.9169     337.5489
   1413.13354     439.6910     336.4958   1413.13354     439.6910     336.4958
   1413.11829     437.0369     335.3463   1413.11829     437.0369     335.3463
   1413.10303     435.1399     334.3064   1413.10303     435.1399     334.3064
   1413.08777     432.6777     333.0149   1413.08777     432.6777     333.0149
   1413.07251     430.3071     331.8611   1413.07251     430.3071     331.8611
   1413.05725     428.5395     331.1166   1413.05725     428.5395     331.1166
   1413.04199     426.5748     329.1446   1413.04199     426.5748     329.1446
   1413.02673     423.8961     328.3199   1413.02673     423.8961     328.3199
   1413.01147     422.9984     327.5330   1413.01147     422.9984     327.5330
   1412.99622     420.4268     326.2970   1412.99622     420.4268     326.2970
   1412.98096     418.3822     325.8691   1412.98096     418.3822     325.8691
   1412.96570     415.8803     324.7487   1412.96570     415.8803     324.7487
   1412.95044     414.5358     324.0790   1412.95044     414.5358     324.0790
   1412.93518     412.5524     323.2002   1412.93518     412.5524     323.2002
   1412.91992     410.7753     322.1091   1412.91992     410.7753     322.1091
   1412.90466     408.3768     321.2450   1412.90466     408.3768     321.2450
   1412.88940     407.4141     320.7363   1412.88940     407.4141     320.7363
   1412.87415     405.4153     320.2823   1412.87415     405.4153     320.2823
   1412.85889     403.7300     318.9701   1412.85889     403.7300     318.9701
   1412.84363     402.2085     318.6642   1412.84363     402.2085     318.6642
   1412.82837     400.4848     318.2660   1412.82837     400.4848     318.2660
   1412.81311     398.6433     316.8886   1412.81311     398.6433     316.8886
   1412.79785     397.3234     316.8426   1412.79785     397.3234     316.8426
   1412.78259     396.1253     316.6909   1412.78259     396.1253     316.6909
   1412.76733     394.7061     316.4774   1412.76733     394.7061     316.4774
   1412.75208     393.4745     316.2332   1412.75208     393.4745     316.2332
   1412.73682     392.0230     315.7038   1412.73682     392.0230     315.7038
   1412.72156     390.6268     315.7611   1412.72156     390.6268     315.7611
   1412.70630     389.3300     315.0336   1412.70630     389.3300     315.0336
   1412.69104     387.8859     314.5710   1412.69104     387.8859     314.5710
   1412.67578     387.0101     314.8502   1412.67578     387.0101     314.8502
   1412.66052     386.1984     314.5116   1412.66052     386.1984     314.5116
   1412.64526     385.2490     314.7535   1412.64526     385.2490     314.7535
   1412.63000     383.9380     315.3217   1412.63000     383.9380     315.3217
   1412.61475     383.1153     314.5613   1412.61475     383.1153     314.5613
   1412.59949     382.1015     314.8783   1412.59949     382.1015     314.8783
   1412.58423     381.4793     314.8239   1412.58423     381.4793     314.8239
   1412.56897     380.3556     314.3857   1412.56897     380.3556     314.3857
   1412.55371     379.6813     315.3810   1412.55371     379.6813     315.3810
   1412.53845     379.5916     315.3978   1412.53845     379.5916     315.3978
   1412.52319     378.7014     315.9261   1412.52319     378.7014     315.9261
   1412.50793     378.0704     315.8209   1412.50793     378.0704     315.8209
   1412.49268     377.3721     316.2589   1412.49268     377.3721     316.2589
   1412.47742     376.8277     317.1641   1412.47742     376.8277     317.1641
   1412.46216     376.9190     317.7856   1412.46216     376.9190     317.7856
   1412.44690     376.4584     318.4597   1412.44690     376.4584     318.4597
   1412.43164     375.5291     318.2415   1412.43164     375.5291     318.2415
   1412.41638     376.4216     318.9877   1412.41638     376.4216     318.9877
   1412.40112     375.3128     320.4367   1412.40112     375.3128     320.4367
   1412.38586     376.0768     321.6961   1412.38586     376.0768     321.6961
   1412.37061     375.5642     321.7638   1412.37061     375.5642     321.7638
   1412.35535     375.7758     322.8397   1412.35535     375.7758     322.8397
   1412.34009     375.4434     323.1052   1412.34009     375.4434     323.1052
   1412.32483     375.8171     324.6671   1412.32483     375.8171     324.6671
   1412.30957     375.6315     325.5529   1412.30957     375.6315     325.5529
   1412.29431     375.6075     326.2875   1412.29431     375.6075     326.2875
   1412.27905     375.9347     328.0440   1412.27905     375.9347     328.0440
   1412.26379     376.5973     328.7906   1412.26379     376.5973     328.7906
   1412.24854     376.6790     330.2897   1412.24854     376.6790     330.2897
   1412.23328     378.0143     330.7275   1412.23328     378.0143     330.7275
   1412.21802     377.5430     332.6982   1412.21802     377.5430     332.6982
   1412.20276     378.7360     333.7803   1412.20276     378.7360     333.7803