#     FILENAME=!Skynet_57528_lach-cc-220_20632_21039.cyb.fits
#     BASENAME=Skynet_57528_lach-cc-220_20632_21039
#     SRC_NAME=lach-cc-220
#     OBSERVER=ccmadison16_9505
#     DATE_OBS=2016-05-20T19:54:44.870
#        OBSID=20632
#      SCANNUM=21039
#          MJD=57528.8307
#          UTC=71774
#     SCANTYPE=track
#     DATAMODE=HIRES
#     TUNEFREQ=1420.0000
# Actual_FREQ1=1420.0000
# Actual_FREQ2=1420.0000
#    LO1Tuning=6870.000
#     RFFILTER=1355_1435
#        OBSBW=-15.6250
#        NCHAN=1024 
#        FOCUS=37.0709
#           RA=07:04:23.23
#          DEC=-06:17:11.20
#      RA(hrs)=7.073100
#     DEC(deg)=-6.286400
#    AZIM(deg)=167.516
#    ELEV(deg)=44.400
#     IFattens=10.00, 9.00
#      WARNING=None
#    TCAL_XL1=7.9635
#    TCAL_YR1=9.1340
#    TCAL_XL2=7.9635
#    TCAL_YR2=9.1340
#     TRX_XL1=11.7060
#     TRX_YR1=11.7060
#     TRX_XL2=11.7060
#     TRX_YR2=11.7060
#        TAVE=1.0000
#Freq1(MHz)          XL1          YR1  Freq2(MHz)          XL2          YR2 

   1427.81250     351.1688     262.4298   1427.81250     351.1688     262.4298
   1427.79724     352.3941     262.9988   1427.79724     352.3941     262.9988
   1427.78198     352.7190     263.4476   1427.78198     352.7190     263.4476
   1427.76672     354.2523     264.1375   1427.76672     354.2523     264.1375
   1427.75146     354.3106     263.8576   1427.75146     354.3106     263.8576
   1427.73621     355.4702     265.2558   1427.73621     355.4702     265.2558
   1427.72095     356.2885     265.2322   1427.72095     356.2885     265.2322
   1427.70569     357.6951     266.2859   1427.70569     357.6951     266.2859
   1427.69043     358.5930     266.9661   1427.69043     358.5930     266.9661
   1427.67517     359.3902     268.0225   1427.67517     359.3902     268.0225
   1427.65991     360.4669     268.3862   1427.65991     360.4669     268.3862
   1427.64465     361.7082     269.1227   1427.64465     361.7082     269.1227
   1427.62939     362.8770     269.9931   1427.62939     362.8770     269.9931
   1427.61414     364.0743     271.4867   1427.61414     364.0743     271.4867
   1427.59888     365.5473     271.8356   1427.59888     365.5473     271.8356
   1427.58362     366.6831     272.7418   1427.58362     366.6831     272.7418
   1427.56836     368.0296     273.7039   1427.56836     368.0296     273.7039
   1427.55310     369.3569     274.7884   1427.55310     369.3569     274.7884
   1427.53784     370.6357     275.8781   1427.53784     370.6357     275.8781
   1427.52258     372.6475     276.9417   1427.52258     372.6475     276.9417
   1427.50732     374.1732     278.3885   1427.50732     374.1732     278.3885
   1427.49207     375.8018     279.6079   1427.49207     375.8018     279.6079
   1427.47681     377.3022     280.6963   1427.47681     377.3022     280.6963
   1427.46155     379.1696     281.9138   1427.46155     379.1696     281.9138
   1427.44629     380.6649     283.5183   1427.44629     380.6649     283.5183
   1427.43103     382.5971     284.9034   1427.43103     382.5971     284.9034
   1427.41577     384.2747     285.7432   1427.41577     384.2747     285.7432
   1427.40051     385.7609     286.7612   1427.40051     385.7609     286.7612
   1427.38525     387.7576     288.2252   1427.38525     387.7576     288.2252
   1427.37000     389.3949     289.7656   1427.37000     389.3949     289.7656
   1427.35474     391.2246     291.4518   1427.35474     391.2246     291.4518
   1427.33948     393.0963     292.6689   1427.33948     393.0963     292.6689
   1427.32422     395.7261     294.3430   1427.32422     395.7261     294.3430
   1427.30896     397.5502     296.6486   1427.30896     397.5502     296.6486
   1427.29370     400.0558     297.8592   1427.29370     400.0558     297.8592
   1427.27844     401.5341     299.7292   1427.27844     401.5341     299.7292
   1427.26318     403.7845     300.9861   1427.26318     403.7845     300.9861
   1427.24792     406.1425     302.7390   1427.24792     406.1425     302.7390
   1427.23267     408.0233     303.9488   1427.23267     408.0233     303.9488
   1427.21741     410.7068     306.5521   1427.21741     410.7068     306.5521
   1427.20215     412.8656     308.3419   1427.20215     412.8656     308.3419
   1427.18689     415.1357     310.0029   1427.18689     415.1357     310.0029
   1427.17163     417.7704     311.8463   1427.17163     417.7704     311.8463
   1427.15637     419.6950     313.6634   1427.15637     419.6950     313.6634
   1427.14111     422.0074     315.5158   1427.14111     422.0074     315.5158
   1427.12585     424.2788     317.5539   1427.12585     424.2788     317.5539
   1427.11060     427.1124     319.4214   1427.11060     427.1124     319.4214
   1427.09534     429.6652     321.1144   1427.09534     429.6652     321.1144
   1427.08008     432.3465     324.1609   1427.08008     432.3465     324.1609
   1427.06482     434.8668     325.5535   1427.06482     434.8668     325.5535
   1427.04956     436.9507     327.3726   1427.04956     436.9507     327.3726
   1427.03430     438.9762     329.6226   1427.03430     438.9762     329.6226
   1427.01904     441.4714     331.4725   1427.01904     441.4714     331.4725
   1427.00378     444.1110     333.8117   1427.00378     444.1110     333.8117
   1426.98853     447.2903     335.7611   1426.98853     447.2903     335.7611
   1426.97327     450.0917     338.1265   1426.97327     450.0917     338.1265
   1426.95801     453.1932     340.0559   1426.95801     453.1932     340.0559
   1426.94275     455.1613     342.7942   1426.94275     455.1613     342.7942
   1426.92749     458.1581     344.2707   1426.92749     458.1581     344.2707
   1426.91223     460.3852     347.2451   1426.91223     460.3852     347.2451
   1426.89697     462.7592     349.2034   1426.89697     462.7592     349.2034
   1426.88171     465.0709     352.0805   1426.88171     465.0709     352.0805
   1426.86646     468.3157     353.3164   1426.86646     468.3157     353.3164
   1426.85120     471.2014     356.0719   1426.85120     471.2014     356.0719
   1426.83594     474.2879     358.3385   1426.83594     474.2879     358.3385
   1426.82068     476.4381     360.6454   1426.82068     476.4381     360.6454
   1426.80542     478.8687     362.9388   1426.80542     478.8687     362.9388
   1426.79016     482.3562     365.2983   1426.79016     482.3562     365.2983
   1426.77490     484.3851     367.5442   1426.77490     484.3851     367.5442
   1426.75964     487.2852     370.1708   1426.75964     487.2852     370.1708
   1426.74438     489.8810     372.7241   1426.74438     489.8810     372.7241
   1426.72913     492.0411     374.8014   1426.72913     492.0411     374.8014
   1426.71387     495.2735     377.9874   1426.71387     495.2735     377.9874
   1426.69861     498.9114     379.6722   1426.69861     498.9114     379.6722
   1426.68335     501.1620     382.3858   1426.68335     501.1620     382.3858
   1426.66809     503.4780     385.0200   1426.66809     503.4780     385.0200
   1426.65283     506.3109     387.0814   1426.65283     506.3109     387.0814
   1426.63757     509.2864     389.7944   1426.63757     509.2864     389.7944
   1426.62231     512.7188     393.2108   1426.62231     512.7188     393.2108
   1426.60706     514.4921     395.2317   1426.60706     514.4921     395.2317
   1426.59180     517.4476     397.4697   1426.59180     517.4476     397.4697
   1426.57654     520.1472     400.0566   1426.57654     520.1472     400.0566
   1426.56128     523.0075     401.7888   1426.56128     523.0075     401.7888
   1426.54602     525.6093     405.0279   1426.54602     525.6093     405.0279
   1426.53076     528.2212     407.3798   1426.53076     528.2212     407.3798
   1426.51550     530.8525     409.3476   1426.51550     530.8525     409.3476
   1426.50024     532.9566     411.6968   1426.50024     532.9566     411.6968
   1426.48499     536.4843     414.0659   1426.48499     536.4843     414.0659
   1426.46973     538.1124     417.0055   1426.46973     538.1124     417.0055
   1426.45447     541.3171     419.6513   1426.45447     541.3171     419.6513
   1426.43921     544.1596     422.4725   1426.43921     544.1596     422.4725
   1426.42395     546.5004     424.6788   1426.42395     546.5004     424.6788
   1426.40869     548.9063     427.4745   1426.40869     548.9063     427.4745
   1426.39343     552.3829     429.7830   1426.39343     552.3829     429.7830
   1426.37817     554.9370     431.6142   1426.37817     554.9370     431.6142
   1426.36292     556.8687     434.8604   1426.36292     556.8687     434.8604
   1426.34766     559.7332     437.1754   1426.34766     559.7332     437.1754
   1426.33240     562.3920     440.3957   1426.33240     562.3920     440.3957
   1426.31714     564.4215     441.4707   1426.31714     564.4215     441.4707
   1426.30188     567.3033     444.9902   1426.30188     567.3033     444.9902
   1426.28662     569.0578     447.5951   1426.28662     569.0578     447.5951
   1426.27136     572.6637     449.3594   1426.27136     572.6637     449.3594
   1426.25610     574.0499     451.9076   1426.25610     574.0499     451.9076
   1426.24084     577.3807     454.5888   1426.24084     577.3807     454.5888
   1426.22559     579.9534     457.1126   1426.22559     579.9534     457.1126
   1426.21033     581.1030     460.1177   1426.21033     581.1030     460.1177
   1426.19507     584.2584     461.3840   1426.19507     584.2584     461.3840
   1426.17981     587.0369     464.6535   1426.17981     587.0369     464.6535
   1426.16455     589.8345     466.9927   1426.16455     589.8345     466.9927
   1426.14929     590.8163     470.0410   1426.14929     590.8163     470.0410
   1426.13403     593.1956     471.6558   1426.13403     593.1956     471.6558
   1426.11877     596.1073     474.3245   1426.11877     596.1073     474.3245
   1426.10352     599.3495     476.9142   1426.10352     599.3495     476.9142
   1426.08826     600.2340     479.4006   1426.08826     600.2340     479.4006
   1426.07300     602.8507     481.9037   1426.07300     602.8507     481.9037
   1426.05774     604.5338     484.5286   1426.05774     604.5338     484.5286
   1426.04248     606.9197     486.3202   1426.04248     606.9197     486.3202
   1426.02722     608.7857     489.2862   1426.02722     608.7857     489.2862
   1426.01196     610.5255     491.0773   1426.01196     610.5255     491.0773
   1425.99670     612.0704     493.4105   1425.99670     612.0704     493.4105
   1425.98145     615.0490     495.6685   1425.98145     615.0490     495.6685
   1425.96619     616.8660     498.0388   1425.96619     616.8660     498.0388
   1425.95093     618.8609     500.2543   1425.95093     618.8609     500.2543
   1425.93567     621.9774     501.9840   1425.93567     621.9774     501.9840
   1425.92041     622.8693     504.7538   1425.92041     622.8693     504.7538
   1425.90515     625.4940     507.2426   1425.90515     625.4940     507.2426
   1425.88989     627.7330     510.2935   1425.88989     627.7330     510.2935
   1425.87463     629.9227     512.1622   1425.87463     629.9227     512.1622
   1425.85938     629.5508     514.0513   1425.85938     629.5508     514.0513
   1425.84412     632.3013     516.5223   1425.84412     632.3013     516.5223
   1425.82886     634.1272     519.0043   1425.82886     634.1272     519.0043
   1425.81360     635.1025     520.7479   1425.81360     635.1025     520.7479
   1425.79834     637.7841     523.2568   1425.79834     637.7841     523.2568
   1425.78308     639.8950     525.3568   1425.78308     639.8950     525.3568
   1425.76782     641.3555     527.4598   1425.76782     641.3555     527.4598
   1425.75256     642.3906     530.1790   1425.75256     642.3906     530.1790
   1425.73730     645.6995     531.7676   1425.73730     645.6995     531.7676
   1425.72205     644.8644     533.5783   1425.72205     644.8644     533.5783
   1425.70679     647.8268     536.0977   1425.70679     647.8268     536.0977
   1425.69153     649.2308     537.5911   1425.69153     649.2308     537.5911
   1425.67627     650.4492     539.1859   1425.67627     650.4492     539.1859
   1425.66101     652.4122     541.5902   1425.66101     652.4122     541.5902
   1425.64575     652.9775     543.1349   1425.64575     652.9775     543.1349
   1425.63049     655.2332     545.9980   1425.63049     655.2332     545.9980
   1425.61523     656.5451     547.1984   1425.61523     656.5451     547.1984
   1425.59998     658.9545     549.5845   1425.59998     658.9545     549.5845
   1425.58472     659.6687     551.7622   1425.58472     659.6687     551.7622
   1425.56946     660.5366     553.3695   1425.56946     660.5366     553.3695
   1425.55420     661.7069     554.8026   1425.55420     661.7069     554.8026
   1425.53894     663.8136     557.6331   1425.53894     663.8136     557.6331
   1425.52368     664.1438     558.9098   1425.52368     664.1438     558.9098
   1425.50842     664.8789     561.2103   1425.50842     664.8789     561.2103
   1425.49316     666.7719     562.3099   1425.49316     666.7719     562.3099
   1425.47791     668.8108     564.9402   1425.47791     668.8108     564.9402
   1425.46265     668.3262     567.1761   1425.46265     668.3262     567.1761
   1425.44739     670.2396     568.4143   1425.44739     670.2396     568.4143
   1425.43213     671.3505     570.5082   1425.43213     671.3505     570.5082
   1425.41687     672.0766     572.5187   1425.41687     672.0766     572.5187
   1425.40161     673.5051     574.7968   1425.40161     673.5051     574.7968
   1425.38635     674.6605     575.9099   1425.38635     674.6605     575.9099
   1425.37109     675.2917     576.6812   1425.37109     675.2917     576.6812
   1425.35583     676.3048     578.2411   1425.35583     676.3048     578.2411
   1425.34058     676.4409     580.3624   1425.34058     676.4409     580.3624
   1425.32532     677.9164     581.8959   1425.32532     677.9164     581.8959
   1425.31006     678.2570     584.0623   1425.31006     678.2570     584.0623
   1425.29480     679.9722     586.3254   1425.29480     679.9722     586.3254
   1425.27954     680.6458     587.4575   1425.27954     680.6458     587.4575
   1425.26428     681.7833     588.9672   1425.26428     681.7833     588.9672
   1425.24902     682.4876     590.0782   1425.24902     682.4876     590.0782
   1425.23376     682.7115     591.8577   1425.23376     682.7115     591.8577
   1425.21851     682.8856     593.0435   1425.21851     682.8856     593.0435
   1425.20325     684.2559     593.9227   1425.20325     684.2559     593.9227
   1425.18799     685.0751     595.6479   1425.18799     685.0751     595.6479
   1425.17273     686.0923     597.6410   1425.17273     686.0923     597.6410
   1425.15747     687.3725     598.5390   1425.15747     687.3725     598.5390
   1425.14221     687.4783     600.8223   1425.14221     687.4783     600.8223
   1425.12695     686.7468     603.3059   1425.12695     686.7468     603.3059
   1425.11169     688.9897     603.3835   1425.11169     688.9897     603.3835
   1425.09644     688.9398     605.0647   1425.09644     688.9398     605.0647
   1425.08118     689.3846     606.3814   1425.08118     689.3846     606.3814
   1425.06592     690.6009     608.0381   1425.06592     690.6009     608.0381
   1425.05066     689.5248     609.1302   1425.05066     689.5248     609.1302
   1425.03540     691.2044     609.3557   1425.03540     691.2044     609.3557
   1425.02014     692.0119     612.0771   1425.02014     692.0119     612.0771
   1425.00488     692.5774     613.2004   1425.00488     692.5774     613.2004
   1424.98962     693.4013     613.8494   1424.98962     693.4013     613.8494
   1424.97437     692.8359     614.6401   1424.97437     692.8359     614.6401
   1424.95911     693.2191     616.0597   1424.95911     693.2191     616.0597
   1424.94385     694.4504     617.7537   1424.94385     694.4504     617.7537
   1424.92859     694.5324     618.6379   1424.92859     694.5324     618.6379
   1424.91333     694.7701     618.5442   1424.91333     694.7701     618.5442
   1424.89807     694.3177     619.5753   1424.89807     694.3177     619.5753
   1424.88281     695.2493     622.1789   1424.88281     695.2493     622.1789
   1424.86755     694.5104     621.6181   1424.86755     694.5104     621.6181
   1424.85229     696.2668     623.2286   1424.85229     696.2668     623.2286
   1424.83704     696.1140     625.0172   1424.83704     696.1140     625.0172
   1424.82178     695.7003     626.8509   1424.82178     695.7003     626.8509
   1424.80652     695.8749     627.4720   1424.80652     695.8749     627.4720
   1424.79126     696.7048     626.8403   1424.79126     696.7048     626.8403
   1424.77600     696.2357     628.5535   1424.77600     696.2357     628.5535
   1424.76074     696.8051     628.7693   1424.76074     696.8051     628.7693
   1424.74548     697.0868     630.1059   1424.74548     697.0868     630.1059
   1424.73022     697.4695     632.0880   1424.73022     697.4695     632.0880
   1424.71497     698.0629     631.3064   1424.71497     698.0629     631.3064
   1424.69971     697.0694     632.8674   1424.69971     697.0694     632.8674
   1424.68445     697.0972     633.8745   1424.68445     697.0972     633.8745
   1424.66919     697.9704     635.1037   1424.66919     697.9704     635.1037
   1424.65393     698.3104     636.0270   1424.65393     698.3104     636.0270
   1424.63867     697.9440     636.6091   1424.63867     697.9440     636.6091
   1424.62341     697.5392     636.9149   1424.62341     697.5392     636.9149
   1424.60815     697.2674     637.3157   1424.60815     697.2674     637.3157
   1424.59290     698.8735     637.9730   1424.59290     698.8735     637.9730
   1424.57764     698.3973     639.1459   1424.57764     698.3973     639.1459
   1424.56238     698.3282     640.8882   1424.56238     698.3282     640.8882
   1424.54712     698.6181     640.2499   1424.54712     698.6181     640.2499
   1424.53186     699.0091     640.8320   1424.53186     699.0091     640.8320
   1424.51660     698.3500     642.2052   1424.51660     698.3500     642.2052
   1424.50134     698.9859     642.0674   1424.50134     698.9859     642.0674
   1424.48608     698.2709     642.4499   1424.48608     698.2709     642.4499
   1424.47083     699.1755     641.7241   1424.47083     699.1755     641.7241
   1424.45557     698.2050     644.2431   1424.45557     698.2050     644.2431
   1424.44031     698.5269     643.4241   1424.44031     698.5269     643.4241
   1424.42505     697.7464     645.1447   1424.42505     697.7464     645.1447
   1424.40979     697.2097     645.2968   1424.40979     697.2097     645.2968
   1424.39453     698.1920     645.0915   1424.39453     698.1920     645.0915
   1424.37927     697.1562     646.6364   1424.37927     697.1562     646.6364
   1424.36401     698.3037     646.9434   1424.36401     698.3037     646.9434
   1424.34875     698.7379     647.2915   1424.34875     698.7379     647.2915
   1424.33350     698.5947     646.8920   1424.33350     698.5947     646.8920
   1424.31824     697.3278     647.4736   1424.31824     697.3278     647.4736
   1424.30298     698.0455     648.0096   1424.30298     698.0455     648.0096
   1424.28772     696.8988     649.3240   1424.28772     696.8988     649.3240
   1424.27246     698.1122     648.8512   1424.27246     698.1122     648.8512
   1424.25720     697.7518     649.6414   1424.25720     697.7518     649.6414
   1424.24194     697.3288     650.0585   1424.24194     697.3288     650.0585
   1424.22668     696.2413     649.1519   1424.22668     696.2413     649.1519
   1424.21143     696.9625     650.1294   1424.21143     696.9625     650.1294
   1424.19617     697.0940     650.0293   1424.19617     697.0940     650.0293
   1424.18091     697.1617     650.0489   1424.18091     697.1617     650.0489
   1424.16565     695.5683     650.4021   1424.16565     695.5683     650.4021
   1424.15039     695.3880     650.3344   1424.15039     695.3880     650.3344
   1424.13513     695.5471     650.0718   1424.13513     695.5471     650.0718
   1424.11987     695.7275     650.1740   1424.11987     695.7275     650.1740
   1424.10461     695.3327     650.0765   1424.10461     695.3327     650.0765
   1424.08936     694.9576     651.1669   1424.08936     694.9576     651.1669
   1424.07410     696.2469     651.0155   1424.07410     696.2469     651.0155
   1424.05884     694.5445     650.3377   1424.05884     694.5445     650.3377
   1424.04358     695.3016     649.9692   1424.04358     695.3016     649.9692
   1424.02832     694.0154     650.7115   1424.02832     694.0154     650.7115
   1424.01306     693.7057     650.2969   1424.01306     693.7057     650.2969
   1423.99780     693.7900     650.3271   1423.99780     693.7900     650.3271
   1423.98254     693.5240     650.4500   1423.98254     693.5240     650.4500
   1423.96729     692.9164     650.1448   1423.96729     692.9164     650.1448
   1423.95203     694.0192     649.8788   1423.95203     694.0192     649.8788
   1423.93677     692.0833     650.5992   1423.93677     692.0833     650.5992
   1423.92151     692.1758     649.4155   1423.92151     692.1758     649.4155
   1423.90625     694.8189     650.7234   1423.90625     694.8189     650.7234
   1423.89099     692.8171     650.4645   1423.89099     692.8171     650.4645
   1423.87573     691.9456     650.4837   1423.87573     691.9456     650.4837
   1423.86047     692.4066     650.2621   1423.86047     692.4066     650.2621
   1423.84521     692.2933     649.8276   1423.84521     692.2933     649.8276
   1423.82996     691.7155     648.9194   1423.82996     691.7155     648.9194
   1423.81470     692.0085     648.6237   1423.81470     692.0085     648.6237
   1423.79944     691.9606     648.1011   1423.79944     691.9606     648.1011
   1423.78418     690.8640     647.9985   1423.78418     690.8640     647.9985
   1423.76892     690.6251     648.2480   1423.76892     690.6251     648.2480
   1423.75366     691.0520     647.0809   1423.75366     691.0520     647.0809
   1423.73840     690.1835     647.7283   1423.73840     690.1835     647.7283
   1423.72314     690.1018     647.1282   1423.72314     690.1018     647.1282
   1423.70789     689.3876     647.0896   1423.70789     689.3876     647.0896
   1423.69263     690.3094     645.7330   1423.69263     690.3094     645.7330
   1423.67737     689.4902     646.2520   1423.67737     689.4902     646.2520
   1423.66211     688.8159     644.4584   1423.66211     688.8159     644.4584
   1423.64685     690.0041     644.9047   1423.64685     690.0041     644.9047
   1423.63159     689.0995     644.6058   1423.63159     689.0995     644.6058
   1423.61633     687.5739     644.8448   1423.61633     687.5739     644.8448
   1423.60107     689.1743     643.8143   1423.60107     689.1743     643.8143
   1423.58582     687.8434     643.4173   1423.58582     687.8434     643.4173
   1423.57056     687.4608     642.5767   1423.57056     687.4608     642.5767
   1423.55530     687.9474     641.7459   1423.55530     687.9474     641.7459
   1423.54004     686.9498     641.4732   1423.54004     686.9498     641.4732
   1423.52478     687.9582     641.4230   1423.52478     687.9582     641.4230
   1423.50952     687.0601     641.6354   1423.50952     687.0601     641.6354
   1423.49426     687.1114     640.7426   1423.49426     687.1114     640.7426
   1423.47900     686.2242     639.4708   1423.47900     686.2242     639.4708
   1423.46375     687.8326     638.8350   1423.46375     687.8326     638.8350
   1423.44849     685.7505     637.7555   1423.44849     685.7505     637.7555
   1423.43323     685.5990     636.9137   1423.43323     685.5990     636.9137
   1423.41797     685.8764     635.3157   1423.41797     685.8764     635.3157
   1423.40271     685.2076     636.7150   1423.40271     685.2076     636.7150
   1423.38745     684.4716     633.5543   1423.38745     684.4716     633.5543
   1423.37219     683.7249     635.1177   1423.37219     683.7249     635.1177
   1423.35693     685.5042     634.0054   1423.35693     685.5042     634.0054
   1423.34167     684.6713     633.2581   1423.34167     684.6713     633.2581
   1423.32642     683.4718     633.0526   1423.32642     683.4718     633.0526
   1423.31116     684.6964     631.9991   1423.31116     684.6964     631.9991
   1423.29590     683.8384     631.8551   1423.29590     683.8384     631.8551
   1423.28064     683.3613     630.6230   1423.28064     683.3613     630.6230
   1423.26538     682.6718     629.2692   1423.26538     682.6718     629.2692
   1423.25012     683.7276     629.7593   1423.25012     683.7276     629.7593
   1423.23486     683.5020     627.4302   1423.23486     683.5020     627.4302
   1423.21960     681.6864     626.5297   1423.21960     681.6864     626.5297
   1423.20435     683.0640     626.8620   1423.20435     683.0640     626.8620
   1423.18909     681.0020     626.0145   1423.18909     681.0020     626.0145
   1423.17383     680.7642     625.2871   1423.17383     680.7642     625.2871
   1423.15857     681.6400     622.7227   1423.15857     681.6400     622.7227
   1423.14331     682.0086     623.2227   1423.14331     682.0086     623.2227
   1423.12805     681.0614     621.8399   1423.12805     681.0614     621.8399
   1423.11279     681.8249     621.2142   1423.11279     681.8249     621.2142
   1423.09753     682.0229     620.2896   1423.09753     682.0229     620.2896
   1423.08228     680.5906     619.4516   1423.08228     680.5906     619.4516
   1423.06702     680.2981     616.7201   1423.06702     680.2981     616.7201
   1423.05176     680.0446     617.8204   1423.05176     680.0446     617.8204
   1423.03650     679.9965     616.0032   1423.03650     679.9965     616.0032
   1423.02124     678.9431     615.9635   1423.02124     678.9431     615.9635
   1423.00598     679.4456     615.3173   1423.00598     679.4456     615.3173
   1422.99072     678.9925     614.1148   1422.99072     678.9925     614.1148
   1422.97546     680.2194     613.4180   1422.97546     680.2194     613.4180
   1422.96021     677.8894     611.2991   1422.96021     677.8894     611.2991
   1422.94495     678.7101     611.1863   1422.94495     678.7101     611.1863
   1422.92969     679.5994     610.2449   1422.92969     679.5994     610.2449
   1422.91443     678.2704     609.1277   1422.91443     678.2704     609.1277
   1422.89917     678.0855     606.5425   1422.89917     678.0855     606.5425
   1422.88391     677.6388     607.0455   1422.88391     677.6388     607.0455
   1422.86865     677.3228     605.4836   1422.86865     677.3228     605.4836
   1422.85339     676.7441     604.5455   1422.85339     676.7441     604.5455
   1422.83813     676.7103     603.9110   1422.83813     676.7103     603.9110
   1422.82288     677.4248     602.7341   1422.82288     677.4248     602.7341
   1422.80762     676.4880     601.2198   1422.80762     676.4880     601.2198
   1422.79236     675.7888     599.4586   1422.79236     675.7888     599.4586
   1422.77710     676.6338     599.7232   1422.77710     676.6338     599.7232
   1422.76184     676.4465     597.9324   1422.76184     676.4465     597.9324
   1422.74658     675.7439     595.4693   1422.74658     675.7439     595.4693
   1422.73132     676.0760     595.8997   1422.73132     676.0760     595.8997
   1422.71606     673.8546     594.8068   1422.71606     673.8546     594.8068
   1422.70081     675.1398     593.2695   1422.70081     675.1398     593.2695
   1422.68555     674.9440     592.2966   1422.68555     674.9440     592.2966
   1422.67029     674.2043     590.7308   1422.67029     674.2043     590.7308
   1422.65503     675.0196     589.6117   1422.65503     675.0196     589.6117
   1422.63977     673.7404     588.1712   1422.63977     673.7404     588.1712
   1422.62451     674.5224     587.1423   1422.62451     674.5224     587.1423
   1422.60925     673.2275     586.1223   1422.60925     673.2275     586.1223
   1422.59399     674.0309     585.1437   1422.59399     674.0309     585.1437
   1422.57874     673.1771     583.4838   1422.57874     673.1771     583.4838
   1422.56348     673.1742     583.5624   1422.56348     673.1742     583.5624
   1422.54822     672.8582     581.4716   1422.54822     672.8582     581.4716
   1422.53296     672.2264     579.1404   1422.53296     672.2264     579.1404
   1422.51770     673.1052     578.4285   1422.51770     673.1052     578.4285
   1422.50244     673.2813     578.4946   1422.50244     673.2813     578.4946
   1422.48718     672.1138     576.3174   1422.48718     672.1138     576.3174
   1422.47192     671.9568     575.0648   1422.47192     671.9568     575.0648
   1422.45667     671.9363     573.9393   1422.45667     671.9363     573.9393
   1422.44141     671.8583     571.7829   1422.44141     671.8583     571.7829
   1422.42615     671.3680     571.2076   1422.42615     671.3680     571.2076
   1422.41089     670.4249     571.0128   1422.41089     670.4249     571.0128
   1422.39563     670.7065     568.9496   1422.39563     670.7065     568.9496
   1422.38037     670.1984     568.2988   1422.38037     670.1984     568.2988
   1422.36511     670.4624     566.5525   1422.36511     670.4624     566.5525
   1422.34985     670.2344     564.9257   1422.34985     670.2344     564.9257
   1422.33459     670.5557     564.3557   1422.33459     670.5557     564.3557
   1422.31934     668.8823     562.7149   1422.31934     668.8823     562.7149
   1422.30408     670.0417     561.7243   1422.30408     670.0417     561.7243
   1422.28882     669.9747     561.4568   1422.28882     669.9747     561.4568
   1422.27356     670.3394     559.7220   1422.27356     670.3394     559.7220
   1422.25830     668.4248     557.7133   1422.25830     668.4248     557.7133
   1422.24304     668.8307     556.6118   1422.24304     668.8307     556.6118
   1422.22778     668.9004     555.7150   1422.22778     668.9004     555.7150
   1422.21252     667.9752     554.5356   1422.21252     667.9752     554.5356
   1422.19727     668.1252     552.9578   1422.19727     668.1252     552.9578
   1422.18201     669.2646     551.7347   1422.18201     669.2646     551.7347
   1422.16675     667.0973     549.9084   1422.16675     667.0973     549.9084
   1422.15149     668.0632     548.7789   1422.15149     668.0632     548.7789
   1422.13623     667.3249     548.1918   1422.13623     667.3249     548.1918
   1422.12097     667.6038     547.1788   1422.12097     667.6038     547.1788
   1422.10571     667.3263     545.6093   1422.10571     667.3263     545.6093
   1422.09045     666.8862     544.2651   1422.09045     666.8862     544.2651
   1422.07520     667.1453     542.6491   1422.07520     667.1453     542.6491
   1422.05994     666.5480     540.9893   1422.05994     666.5480     540.9893
   1422.04468     666.5515     540.7129   1422.04468     666.5515     540.7129
   1422.02942     667.9621     539.6112   1422.02942     667.9621     539.6112
   1422.01416     666.2777     538.4584   1422.01416     666.2777     538.4584
   1421.99890     665.8922     536.4951   1421.99890     665.8922     536.4951
   1421.98364     667.0780     535.1346   1421.98364     667.0780     535.1346
   1421.96838     665.8660     534.5193   1421.96838     665.8660     534.5193
   1421.95312     665.8325     531.9459   1421.95312     665.8325     531.9459
   1421.93787     665.5176     531.2822   1421.93787     665.5176     531.2822
   1421.92261     664.5691     529.5517   1421.92261     664.5691     529.5517
   1421.90735     664.6328     529.6365   1421.90735     664.6328     529.6365
   1421.89209     664.9247     527.1092   1421.89209     664.9247     527.1092
   1421.87683     664.9351     526.2839   1421.87683     664.9351     526.2839
   1421.86157     663.3997     524.3942   1421.86157     663.3997     524.3942
   1421.84631     664.0507     523.4711   1421.84631     664.0507     523.4711
   1421.83105     662.7973     522.4915   1421.83105     662.7973     522.4915
   1421.81580     664.0011     520.8491   1421.81580     664.0011     520.8491
   1421.80054     664.6063     519.9366   1421.80054     664.6063     519.9366
   1421.78528     662.6720     518.6511   1421.78528     662.6720     518.6511
   1421.77002     663.7834     516.7948   1421.77002     663.7834     516.7948
   1421.75476     662.8488     515.8633   1421.75476     662.8488     515.8633
   1421.73950     662.2846     515.9086   1421.73950     662.2846     515.9086
   1421.72424     662.0325     513.9944   1421.72424     662.0325     513.9944
   1421.70898     661.5053     512.3054   1421.70898     661.5053     512.3054
   1421.69373     660.6889     511.5580   1421.69373     660.6889     511.5580
   1421.67847     661.7571     509.8998   1421.67847     661.7571     509.8998
   1421.66321     660.2975     509.2716   1421.66321     660.2975     509.2716
   1421.64795     662.3617     507.1198   1421.64795     662.3617     507.1198
   1421.63269     660.6179     506.5541   1421.63269     660.6179     506.5541
   1421.61743     660.4125     504.4218   1421.61743     660.4125     504.4218
   1421.60217     660.3833     503.9369   1421.60217     660.3833     503.9369
   1421.58691     661.8155     503.4746   1421.58691     661.8155     503.4746
   1421.57166     660.3645     501.4319   1421.57166     660.3645     501.4319
   1421.55640     659.8273     500.6715   1421.55640     659.8273     500.6715
   1421.54114     659.2034     498.4131   1421.54114     659.2034     498.4131
   1421.52588     659.1281     498.5690   1421.52588     659.1281     498.5690
   1421.51062     658.6491     495.7633   1421.51062     658.6491     495.7633
   1421.49536     658.6629     495.5899   1421.49536     658.6629     495.5899
   1421.48010     658.4651     493.7633   1421.48010     658.4651     493.7633
   1421.46484     657.8472     492.8736   1421.46484     657.8472     492.8736
   1421.44958     658.8027     492.0703   1421.44958     658.8027     492.0703
   1421.43433     658.3141     491.8038   1421.43433     658.3141     491.8038
   1421.41907     658.5580     489.5493   1421.41907     658.5580     489.5493
   1421.40381     658.5630     488.5786   1421.40381     658.5630     488.5786
   1421.38855     657.2485     487.5740   1421.38855     657.2485     487.5740
   1421.37329     657.5984     485.9844   1421.37329     657.5984     485.9844
   1421.35803     657.4838     485.0625   1421.35803     657.4838     485.0625
   1421.34277     656.7084     484.1060   1421.34277     656.7084     484.1060
   1421.32751     656.9462     482.7709   1421.32751     656.9462     482.7709
   1421.31226     655.8612     481.7430   1421.31226     655.8612     481.7430
   1421.29700     655.9584     479.5512   1421.29700     655.9584     479.5512
   1421.28174     655.3998     479.1216   1421.28174     655.3998     479.1216
   1421.26648     655.8098     478.3289   1421.26648     655.8098     478.3289
   1421.25122     655.2989     477.2355   1421.25122     655.2989     477.2355
   1421.23596     655.2411     476.0156   1421.23596     655.2411     476.0156
   1421.22070     654.9620     474.1337   1421.22070     654.9620     474.1337
   1421.20544     654.8261     474.3158   1421.20544     654.8261     474.3158
   1421.19019     654.4447     473.4557   1421.19019     654.4447     473.4557
   1421.17493     654.6491     471.6783   1421.17493     654.6491     471.6783
   1421.15967     654.8823     470.3167   1421.15967     654.8823     470.3167
   1421.14441     653.7175     469.3569   1421.14441     653.7175     469.3569
   1421.12915     652.8946     468.5159   1421.12915     652.8946     468.5159
   1421.11389     652.9262     466.9416   1421.11389     652.9262     466.9416
   1421.09863     653.3941     466.9314   1421.09863     653.3941     466.9314
   1421.08337     653.1355     464.3556   1421.08337     653.1355     464.3556
   1421.06812     652.4888     464.0982   1421.06812     652.4888     464.0982
   1421.05286     652.5969     463.2655   1421.05286     652.5969     463.2655
   1421.03760     651.6669     461.6579   1421.03760     651.6669     461.6579
   1421.02234     652.2337     460.8516   1421.02234     652.2337     460.8516
   1421.00708     651.4227     460.8635   1421.00708     651.4227     460.8635
   1420.99182     651.5328     458.8972   1420.99182     651.5328     458.8972
   1420.97656     651.8586     458.2690   1420.97656     651.8586     458.2690
   1420.96130     650.8900     456.9634   1420.96130     650.8900     456.9634
   1420.94604     651.1033     455.6744   1420.94604     651.1033     455.6744
   1420.93079     651.7809     455.5157   1420.93079     651.7809     455.5157
   1420.91553     651.2692     453.6797   1420.91553     651.2692     453.6797
   1420.90027     650.0326     453.4597   1420.90027     650.0326     453.4597
   1420.88501     650.7884     451.9979   1420.88501     650.7884     451.9979
   1420.86975     650.6950     451.0855   1420.86975     650.6950     451.0855
   1420.85449     650.8697     450.4125   1420.85449     650.8697     450.4125
   1420.83923     649.9739     449.9897   1420.83923     649.9739     449.9897
   1420.82397     649.4852     448.2332   1420.82397     649.4852     448.2332
   1420.80872     650.2188     448.4019   1420.80872     650.2188     448.4019
   1420.79346     650.5839     447.0641   1420.79346     650.5839     447.0641
   1420.77820     650.5530     446.5074   1420.77820     650.5530     446.5074
   1420.76294     650.0090     445.8200   1420.76294     650.0090     445.8200
   1420.74768     650.8431     445.0141   1420.74768     650.8431     445.0141
   1420.73242     650.9266     443.9932   1420.73242     650.9266     443.9932
   1420.71716     650.0503     442.2837   1420.71716     650.0503     442.2837
   1420.70190     650.0101     442.4654   1420.70190     650.0101     442.4654
   1420.68665     650.6582     442.0544   1420.68665     650.6582     442.0544
   1420.67139     649.6791     440.6452   1420.67139     649.6791     440.6452
   1420.65613     649.2978     439.9997   1420.65613     649.2978     439.9997
   1420.64087     649.8612     438.9779   1420.64087     649.8612     438.9779
   1420.62561     649.5078     438.5369   1420.62561     649.5078     438.5369
   1420.61035     649.8694     437.3660   1420.61035     649.8694     437.3660
   1420.59509     649.8278     436.7142   1420.59509     649.8278     436.7142
   1420.57983     650.3303     436.4205   1420.57983     650.3303     436.4205
   1420.56458     652.6617     435.8760   1420.56458     652.6617     435.8760
   1420.54932     651.9859     436.2089   1420.54932     651.9859     436.2089
   1420.53406     654.9918     436.5536   1420.53406     654.9918     436.5536
   1420.51880     656.1093     436.8232   1420.51880     656.1093     436.8232
   1420.50354     655.9163     436.2636   1420.50354     655.9163     436.2636
   1420.48828     655.5040     435.0945   1420.48828     655.5040     435.0945
   1420.47302     652.7912     433.7172   1420.47302     652.7912     433.7172
   1420.45776     651.9687     432.3371   1420.45776     651.9687     432.3371
   1420.44250     650.9558     431.4512   1420.44250     650.9558     431.4512
   1420.42725     651.3633     430.5819   1420.42725     651.3633     430.5819
   1420.41199     651.9572     430.3362   1420.41199     651.9572     430.3362
   1420.39673     651.1507     429.4496   1420.39673     651.1507     429.4496
   1420.38147     651.9471     429.1569   1420.38147     651.9471     429.1569
   1420.36621     651.7812     428.3210   1420.36621     651.7812     428.3210
   1420.35095     653.0049     428.7885   1420.35095     653.0049     428.7885
   1420.33569     654.6254     428.8650   1420.33569     654.6254     428.8650
   1420.32043     658.0490     429.8210   1420.32043     658.0490     429.8210
   1420.30518     663.1182     432.7605   1420.30518     663.1182     432.7605
   1420.28992     671.5428     437.6494   1420.28992     671.5428     437.6494
   1420.27466     688.1280     446.8138   1420.27466     688.1280     446.8138
   1420.25940     722.2634     467.7491   1420.25940     722.2634     467.7491
   1420.24414     795.2202     512.9856   1420.24414     795.2202     512.9856
   1420.22888     966.1277     617.7605   1420.22888     966.1277     617.7605
   1420.21362    1063.8544     680.1070   1420.21362    1063.8544     680.1070
   1420.19836    1095.1102     698.0093   1420.19836    1095.1102     698.0093
   1420.18311    1162.0618     738.9613   1420.18311    1162.0618     738.9613
   1420.16785    1427.0510     903.9772   1420.16785    1427.0510     903.9772
   1420.15259    1836.4176    1156.0659   1420.15259    1836.4176    1156.0659
   1420.13733    1825.4515    1145.1146   1420.13733    1825.4515    1145.1146
   1420.12207    1704.2690    1069.8162   1420.12207    1704.2690    1069.8162
   1420.10681    1586.9236     994.0189   1420.10681    1586.9236     994.0189
   1420.09155    1626.0938    1020.6305   1420.09155    1626.0938    1020.6305
   1420.07629    1645.0945    1029.0494   1420.07629    1645.0945    1029.0494
   1420.06104    1578.8586     987.4466   1420.06104    1578.8586     987.4466
   1420.04578    1428.7710     895.0610   1420.04578    1428.7710     895.0610
   1420.03052    1346.0946     841.1882   1420.03052    1346.0946     841.1882
   1420.01526    1337.5040     833.9635   1420.01526    1337.5040     833.9635
   1420.00000    1461.0190     911.8978   1420.00000    1461.0190     911.8978
   1419.98474    1584.5330     989.8320   1419.98474    1584.5330     989.8320
   1419.96948    1787.3905    1109.3779   1419.96948    1787.3905    1109.3779
   1419.95422    1854.1040    1144.5022   1419.95422    1854.1040    1144.5022
   1419.93896    1666.5803    1032.4211   1419.93896    1666.5803    1032.4211
   1419.92371    1259.9209     783.3716   1419.92371    1259.9209     783.3716
   1419.90845     986.0859     617.4266   1419.90845     986.0859     617.4266
   1419.89319     852.7845     534.4017   1419.89319     852.7845     534.4017
   1419.87793     776.1103     486.5974   1419.87793     776.1103     486.5974
   1419.86267     728.7525     457.0027   1419.86267     728.7525     457.0027
   1419.84741     702.4007     440.9211   1419.84741     702.4007     440.9211
   1419.83215     685.5497     429.5923   1419.83215     685.5497     429.5923
   1419.81689     678.2391     424.6340   1419.81689     678.2391     424.6340
   1419.80164     673.1817     421.1729   1419.80164     673.1817     421.1729
   1419.78638     669.2125     418.8549   1419.78638     669.2125     418.8549
   1419.77112     668.0427     416.2995   1419.77112     668.0427     416.2995
   1419.75586     664.9056     414.5690   1419.75586     664.9056     414.5690
   1419.74060     659.7203     411.6373   1419.74060     659.7203     411.6373
   1419.72534     656.5480     409.2878   1419.72534     656.5480     409.2878
   1419.71008     652.6116     406.6205   1419.71008     652.6116     406.6205
   1419.69482     650.1740     404.6371   1419.69482     650.1740     404.6371
   1419.67957     647.6870     403.4377   1419.67957     647.6870     403.4377
   1419.66431     648.0532     401.9369   1419.66431     648.0532     401.9369
   1419.64905     648.6512     401.5367   1419.64905     648.6512     401.5367
   1419.63379     647.3164     400.5724   1419.63379     647.3164     400.5724
   1419.61853     647.3806     400.5666   1419.61853     647.3806     400.5666
   1419.60327     647.2139     400.1348   1419.60327     647.2139     400.1348
   1419.58801     647.5610     400.1725   1419.58801     647.5610     400.1725
   1419.57275     646.9832     399.4508   1419.57275     646.9832     399.4508
   1419.55750     646.2245     398.6684   1419.55750     646.2245     398.6684
   1419.54224     646.6047     398.1339   1419.54224     646.6047     398.1339
   1419.52698     646.5376     399.0540   1419.52698     646.5376     399.0540
   1419.51172     647.9500     398.5474   1419.51172     647.9500     398.5474
   1419.49646     647.6454     397.8593   1419.49646     647.6454     397.8593
   1419.48120     648.5015     398.2803   1419.48120     648.5015     398.2803
   1419.46594     648.7662     398.1697   1419.46594     648.7662     398.1697
   1419.45068     648.7858     397.3432   1419.45068     648.7858     397.3432
   1419.43542     649.0331     398.4841   1419.43542     649.0331     398.4841
   1419.42017     649.0989     396.8180   1419.42017     649.0989     396.8180
   1419.40491     649.7516     397.7674   1419.40491     649.7516     397.7674
   1419.38965     650.7719     397.7516   1419.38965     650.7719     397.7516
   1419.37439     651.0358     397.3828   1419.37439     651.0358     397.3828
   1419.35913     651.3282     397.4936   1419.35913     651.3282     397.4936
   1419.34387     651.1743     396.7784   1419.34387     651.1743     396.7784
   1419.32861     652.1221     397.4288   1419.32861     652.1221     397.4288
   1419.31335     652.1134     397.0395   1419.31335     652.1134     397.0395
   1419.29810     652.8228     397.0540   1419.29810     652.8228     397.0540
   1419.28284     653.2976     397.3669   1419.28284     653.2976     397.3669
   1419.26758     655.2987     397.6729   1419.26758     655.2987     397.6729
   1419.25232     654.3842     397.2801   1419.25232     654.3842     397.2801
   1419.23706     654.8362     396.7550   1419.23706     654.8362     396.7550
   1419.22180     655.0208     396.8904   1419.22180     655.0208     396.8904
   1419.20654     655.3353     397.3116   1419.20654     655.3353     397.3116
   1419.19128     657.1257     397.2043   1419.19128     657.1257     397.2043
   1419.17603     655.9719     397.1815   1419.17603     655.9719     397.1815
   1419.16077     657.7175     397.9253   1419.16077     657.7175     397.9253
   1419.14551     656.8527     397.0991   1419.14551     656.8527     397.0991
   1419.13025     658.6749     397.6169   1419.13025     658.6749     397.6169
   1419.11499     659.4011     397.6664   1419.11499     659.4011     397.6664
   1419.09973     658.6358     397.8832   1419.09973     658.6358     397.8832
   1419.08447     660.3014     398.2283   1419.08447     660.3014     398.2283
   1419.06921     660.7432     397.8252   1419.06921     660.7432     397.8252
   1419.05396     661.2195     398.2282   1419.05396     661.2195     398.2282
   1419.03870     661.3600     398.6605   1419.03870     661.3600     398.6605
   1419.02344     662.8222     398.8572   1419.02344     662.8222     398.8572
   1419.00818     662.3009     398.7045   1419.00818     662.3009     398.7045
   1418.99292     663.9362     398.9179   1418.99292     663.9362     398.9179
   1418.97766     663.6941     398.7542   1418.97766     663.6941     398.7542
   1418.96240     664.6679     399.4245   1418.96240     664.6679     399.4245
   1418.94714     664.3787     399.7309   1418.94714     664.3787     399.7309
   1418.93188     666.0038     399.6777   1418.93188     666.0038     399.6777
   1418.91663     666.9221     399.7485   1418.91663     666.9221     399.7485
   1418.90137     666.4984     399.8152   1418.90137     666.4984     399.8152
   1418.88611     667.7504     399.9892   1418.88611     667.7504     399.9892
   1418.87085     669.7379     400.4948   1418.87085     669.7379     400.4948
   1418.85559     669.9176     400.6960   1418.85559     669.9176     400.6960
   1418.84033     668.8954     401.6403   1418.84033     668.8954     401.6403
   1418.82507     671.0125     400.9014   1418.82507     671.0125     400.9014
   1418.80981     671.2832     401.9530   1418.80981     671.2832     401.9530
   1418.79456     671.7796     402.2727   1418.79456     671.7796     402.2727
   1418.77930     673.8023     402.1216   1418.77930     673.8023     402.1216
   1418.76404     673.4699     402.3383   1418.76404     673.4699     402.3383
   1418.74878     673.9950     402.7737   1418.74878     673.9950     402.7737
   1418.73352     676.5419     403.3114   1418.73352     676.5419     403.3114
   1418.71826     676.7860     403.5910   1418.71826     676.7860     403.5910
   1418.70300     678.2941     403.9310   1418.70300     678.2941     403.9310
   1418.68774     677.0480     403.8405   1418.68774     677.0480     403.8405
   1418.67249     678.5133     404.3588   1418.67249     678.5133     404.3588
   1418.65723     680.0348     405.3174   1418.65723     680.0348     405.3174
   1418.64197     680.8867     405.2982   1418.64197     680.8867     405.2982
   1418.62671     680.5611     405.5665   1418.62671     680.5611     405.5665
   1418.61145     681.5037     406.4837   1418.61145     681.5037     406.4837
   1418.59619     682.8640     406.2135   1418.59619     682.8640     406.2135
   1418.58093     683.1818     406.7880   1418.58093     683.1818     406.7880
   1418.56567     684.4343     406.9133   1418.56567     684.4343     406.9133
   1418.55042     685.5164     407.6315   1418.55042     685.5164     407.6315
   1418.53516     686.3959     408.4474   1418.53516     686.3959     408.4474
   1418.51990     688.6066     408.7865   1418.51990     688.6066     408.7865
   1418.50464     688.1418     408.7134   1418.50464     688.1418     408.7134
   1418.48938     688.4371     409.4927   1418.48938     688.4371     409.4927
   1418.47412     689.9199     410.5230   1418.47412     689.9199     410.5230
   1418.45886     690.7495     411.2310   1418.45886     690.7495     411.2310
   1418.44360     691.9154     410.5611   1418.44360     691.9154     410.5611
   1418.42834     692.9670     412.1838   1418.42834     692.9670     412.1838
   1418.41309     693.6755     412.4377   1418.41309     693.6755     412.4377
   1418.39783     694.7909     413.2902   1418.39783     694.7909     413.2902
   1418.38257     695.1347     412.4881   1418.38257     695.1347     412.4881
   1418.36731     697.0129     413.5379   1418.36731     697.0129     413.5379
   1418.35205     697.4851     413.9032   1418.35205     697.4851     413.9032
   1418.33679     698.2780     414.5662   1418.33679     698.2780     414.5662
   1418.32153     699.2486     414.4688   1418.32153     699.2486     414.4688
   1418.30627     700.9240     415.3975   1418.30627     700.9240     415.3975
   1418.29102     702.7484     415.1631   1418.29102     702.7484     415.1631
   1418.27576     702.2516     416.8292   1418.27576     702.2516     416.8292
   1418.26050     702.5600     417.0340   1418.26050     702.5600     417.0340
   1418.24524     704.2650     417.0491   1418.24524     704.2650     417.0491
   1418.22998     705.4765     418.6728   1418.22998     705.4765     418.6728
   1418.21472     706.8829     418.4247   1418.21472     706.8829     418.4247
   1418.19946     706.8176     419.3329   1418.19946     706.8176     419.3329
   1418.18420     707.8127     419.6525   1418.18420     707.8127     419.6525
   1418.16895     709.9165     420.4440   1418.16895     709.9165     420.4440
   1418.15369     710.4493     420.5912   1418.15369     710.4493     420.5912
   1418.13843     712.6246     421.5661   1418.13843     712.6246     421.5661
   1418.12317     712.7325     421.9727   1418.12317     712.7325     421.9727
   1418.10791     713.3879     422.5695   1418.10791     713.3879     422.5695
   1418.09265     716.2430     423.1273   1418.09265     716.2430     423.1273
   1418.07739     716.4235     423.5376   1418.07739     716.4235     423.5376
   1418.06213     716.8350     424.2741   1418.06213     716.8350     424.2741
   1418.04688     718.7844     424.9008   1418.04688     718.7844     424.9008
   1418.03162     719.4949     425.2106   1418.03162     719.4949     425.2106
   1418.01636     720.3793     425.5068   1418.01636     720.3793     425.5068
   1418.00110     720.9622     426.7432   1418.00110     720.9622     426.7432
   1417.98584     721.7168     427.8047   1417.98584     721.7168     427.8047
   1417.97058     722.7513     427.4770   1417.97058     722.7513     427.4770
   1417.95532     724.7949     428.3276   1417.95532     724.7949     428.3276
   1417.94006     725.0722     428.4774   1417.94006     725.0722     428.4774
   1417.92480     726.5557     429.7286   1417.92480     726.5557     429.7286
   1417.90955     727.9312     431.0276   1417.90955     727.9312     431.0276
   1417.89429     728.9797     430.7244   1417.89429     728.9797     430.7244
   1417.87903     731.0171     431.5966   1417.87903     731.0171     431.5966
   1417.86377     731.5405     431.9135   1417.86377     731.5405     431.9135
   1417.84851     732.3598     433.0324   1417.84851     732.3598     433.0324
   1417.83325     732.4594     433.5803   1417.83325     732.4594     433.5803
   1417.81799     735.0830     433.5533   1417.81799     735.0830     433.5533
   1417.80273     735.9907     434.5583   1417.80273     735.9907     434.5583
   1417.78748     736.2546     435.2419   1417.78748     736.2546     435.2419
   1417.77222     739.2186     436.6268   1417.77222     739.2186     436.6268
   1417.75696     739.6526     436.5343   1417.75696     739.6526     436.5343
   1417.74170     740.0063     437.1625   1417.74170     740.0063     437.1625
   1417.72644     741.7861     438.4355   1417.72644     741.7861     438.4355
   1417.71118     742.3633     438.1913   1417.71118     742.3633     438.1913
   1417.69592     744.2698     439.5361   1417.69592     744.2698     439.5361
   1417.68066     744.9328     439.6695   1417.68066     744.9328     439.6695
   1417.66541     746.2670     440.4972   1417.66541     746.2670     440.4972
   1417.65015     746.8898     441.3805   1417.65015     746.8898     441.3805
   1417.63489     748.2614     442.1871   1417.63489     748.2614     442.1871
   1417.61963     748.6074     442.2587   1417.61963     748.6074     442.2587
   1417.60437     749.8581     443.0586   1417.60437     749.8581     443.0586
   1417.58911     750.1849     443.3272   1417.58911     750.1849     443.3272
   1417.57385     752.3705     444.9308   1417.57385     752.3705     444.9308
   1417.55859     752.2648     445.3143   1417.55859     752.2648     445.3143
   1417.54333     754.5005     445.9559   1417.54333     754.5005     445.9559
   1417.52808     755.1829     446.8823   1417.52808     755.1829     446.8823
   1417.51282     757.3885     446.8387   1417.51282     757.3885     446.8387
   1417.49756     757.3812     448.3753   1417.49756     757.3812     448.3753
   1417.48230     758.5327     448.1661   1417.48230     758.5327     448.1661
   1417.46704     759.6053     449.2629   1417.46704     759.6053     449.2629
   1417.45178     759.9679     449.2535   1417.45178     759.9679     449.2535
   1417.43652     761.6481     450.6216   1417.43652     761.6481     450.6216
   1417.42126     763.0670     450.7731   1417.42126     763.0670     450.7731
   1417.40601     763.6757     451.5641   1417.40601     763.6757     451.5641
   1417.39075     765.1301     452.3325   1417.39075     765.1301     452.3325
   1417.37549     765.5821     452.8275   1417.37549     765.5821     452.8275
   1417.36023     767.8476     453.4805   1417.36023     767.8476     453.4805
   1417.34497     768.8865     454.5580   1417.34497     768.8865     454.5580
   1417.32971     768.7632     455.7478   1417.32971     768.7632     455.7478
   1417.31445     769.6524     455.5049   1417.31445     769.6524     455.5049
   1417.29919     770.1356     456.1660   1417.29919     770.1356     456.1660
   1417.28394     771.1152     456.6058   1417.28394     771.1152     456.6058
   1417.26868     772.9390     457.0208   1417.26868     772.9390     457.0208
   1417.25342     773.4159     457.9697   1417.25342     773.4159     457.9697
   1417.23816     774.6624     458.9430   1417.23816     774.6624     458.9430
   1417.22290     777.2200     460.4449   1417.22290     777.2200     460.4449
   1417.20764     775.2605     460.6542   1417.20764     775.2605     460.6542
   1417.19238     777.1673     460.3762   1417.19238     777.1673     460.3762
   1417.17712     776.6968     461.2434   1417.17712     776.6968     461.2434
   1417.16187     778.2654     462.0422   1417.16187     778.2654     462.0422
   1417.14661     779.1014     461.8943   1417.14661     779.1014     461.8943
   1417.13135     780.5909     462.0834   1417.13135     780.5909     462.0834
   1417.11609     780.9354     463.1260   1417.11609     780.9354     463.1260
   1417.10083     782.5367     463.3662   1417.10083     782.5367     463.3662
   1417.08557     783.3309     464.0128   1417.08557     783.3309     464.0128
   1417.07031     782.0116     464.7108   1417.07031     782.0116     464.7108
   1417.05505     784.7776     465.0964   1417.05505     784.7776     465.0964
   1417.03979     784.9137     466.0992   1417.03979     784.9137     466.0992
   1417.02454     785.3508     465.9383   1417.02454     785.3508     465.9383
   1417.00928     786.4837     466.4319   1417.00928     786.4837     466.4319
   1416.99402     787.2651     467.4082   1416.99402     787.2651     467.4082
   1416.97876     786.3127     467.8482   1416.97876     786.3127     467.8482
   1416.96350     788.0538     467.4910   1416.96350     788.0538     467.4910
   1416.94824     788.3894     468.8404   1416.94824     788.3894     468.8404
   1416.93298     790.0568     469.2509   1416.93298     790.0568     469.2509
   1416.91772     790.5786     469.5135   1416.91772     790.5786     469.5135
   1416.90247     791.0011     469.1343   1416.90247     791.0011     469.1343
   1416.88721     790.6145     470.0054   1416.88721     790.6145     470.0054
   1416.87195     792.1615     471.1399   1416.87195     792.1615     471.1399
   1416.85669     791.1884     470.7813   1416.85669     791.1884     470.7813
   1416.84143     791.4495     471.7552   1416.84143     791.4495     471.7552
   1416.82617     792.9098     471.7258   1416.82617     792.9098     471.7258
   1416.81091     793.6037     472.2029   1416.81091     793.6037     472.2029
   1416.79565     794.1508     472.3267   1416.79565     794.1508     472.3267
   1416.78040     793.2384     472.5536   1416.78040     793.2384     472.5536
   1416.76514     794.2769     473.5722   1416.76514     794.2769     473.5722
   1416.74988     796.0407     473.7109   1416.74988     796.0407     473.7109
   1416.73462     794.1457     473.6100   1416.73462     794.1457     473.6100
   1416.71936     795.3433     474.2173   1416.71936     795.3433     474.2173
   1416.70410     796.0446     474.0834   1416.70410     796.0446     474.0834
   1416.68884     795.6884     475.1837   1416.68884     795.6884     475.1837
   1416.67358     796.4155     474.6876   1416.67358     796.4155     474.6876
   1416.65833     796.6833     474.6830   1416.65833     796.6833     474.6830
   1416.64307     795.9202     475.3816   1416.64307     795.9202     475.3816
   1416.62781     797.8823     476.1366   1416.62781     797.8823     476.1366
   1416.61255     798.5376     476.5558   1416.61255     798.5376     476.5558
   1416.59729     797.3439     475.1917   1416.59729     797.3439     475.1917
   1416.58203     799.0146     476.9406   1416.58203     799.0146     476.9406
   1416.56677     798.1250     476.5062   1416.56677     798.1250     476.5062
   1416.55151     798.6189     476.3704   1416.55151     798.6189     476.3704
   1416.53625     799.1049     477.0014   1416.53625     799.1049     477.0014
   1416.52100     798.8881     477.6342   1416.52100     798.8881     477.6342
   1416.50574     798.1334     477.2675   1416.50574     798.1334     477.2675
   1416.49048     798.5015     477.4241   1416.49048     798.5015     477.4241
   1416.47522     799.5572     476.9639   1416.47522     799.5572     476.9639
   1416.45996     798.1861     477.1189   1416.45996     798.1861     477.1189
   1416.44470     798.2899     478.0830   1416.44470     798.2899     478.0830
   1416.42944     799.5203     478.5844   1416.42944     799.5203     478.5844
   1416.41418     798.6577     477.5336   1416.41418     798.6577     477.5336
   1416.39893     799.2510     477.5490   1416.39893     799.2510     477.5490
   1416.38367     798.0387     477.8742   1416.38367     798.0387     477.8742
   1416.36841     799.5223     477.8900   1416.36841     799.5223     477.8900
   1416.35315     798.7154     477.9254   1416.35315     798.7154     477.9254
   1416.33789     798.5942     477.8676   1416.33789     798.5942     477.8676
   1416.32263     798.6573     478.9432   1416.32263     798.6573     478.9432
   1416.30737     798.7730     477.5120   1416.30737     798.7730     477.5120
   1416.29211     797.9988     478.1660   1416.29211     797.9988     478.1660
   1416.27686     797.7835     477.6339   1416.27686     797.7835     477.6339
   1416.26160     797.6242     478.1956   1416.26160     797.6242     478.1956
   1416.24634     796.7175     477.9617   1416.24634     796.7175     477.9617
   1416.23108     796.3033     477.9821   1416.23108     796.3033     477.9821
   1416.21582     797.3888     477.7503   1416.21582     797.3888     477.7503
   1416.20056     796.5157     477.3563   1416.20056     796.5157     477.3563
   1416.18530     797.3948     477.4518   1416.18530     797.3948     477.4518
   1416.17004     796.4396     477.7057   1416.17004     796.4396     477.7057
   1416.15479     795.3704     477.4092   1416.15479     795.3704     477.4092
   1416.13953     795.1786     478.3074   1416.13953     795.1786     478.3074
   1416.12427     794.5731     478.1278   1416.12427     794.5731     478.1278
   1416.10901     794.7359     477.3941   1416.10901     794.7359     477.3941
   1416.09375     793.4734     477.9121   1416.09375     793.4734     477.9121
   1416.07849     793.7664     477.4660   1416.07849     793.7664     477.4660
   1416.06323     793.3104     476.8640   1416.06323     793.3104     476.8640
   1416.04797     791.7281     476.8316   1416.04797     791.7281     476.8316
   1416.03271     792.4164     476.7463   1416.03271     792.4164     476.7463
   1416.01746     792.1766     477.3783   1416.01746     792.1766     477.3783
   1416.00220     790.2504     476.8004   1416.00220     790.2504     476.8004
   1415.98694     790.6012     476.3528   1415.98694     790.6012     476.3528
   1415.97168     789.4886     476.9248   1415.97168     789.4886     476.9248
   1415.95642     788.4240     476.9153   1415.95642     788.4240     476.9153
   1415.94116     788.4432     476.2563   1415.94116     788.4432     476.2563
   1415.92590     788.0629     476.3164   1415.92590     788.0629     476.3164
   1415.91064     787.1461     476.3490   1415.91064     787.1461     476.3490
   1415.89539     787.7468     475.7923   1415.89539     787.7468     475.7923
   1415.88013     786.2214     475.7372   1415.88013     786.2214     475.7372
   1415.86487     786.3638     475.7582   1415.86487     786.3638     475.7582
   1415.84961     783.9343     475.6222   1415.84961     783.9343     475.6222
   1415.83435     784.0748     475.0683   1415.83435     784.0748     475.0683
   1415.81909     783.5572     475.1519   1415.81909     783.5572     475.1519
   1415.80383     782.6699     474.7234   1415.80383     782.6699     474.7234
   1415.78857     781.7093     474.4639   1415.78857     781.7093     474.4639
   1415.77332     782.4474     474.4218   1415.77332     782.4474     474.4218
   1415.75806     780.1360     474.9344   1415.75806     780.1360     474.9344
   1415.74280     779.3004     474.0209   1415.74280     779.3004     474.0209
   1415.72754     779.0942     474.4297   1415.72754     779.0942     474.4297
   1415.71228     778.1902     474.4034   1415.71228     778.1902     474.4034
   1415.69702     776.2301     473.6736   1415.69702     776.2301     473.6736
   1415.68176     776.2754     473.3701   1415.68176     776.2754     473.3701
   1415.66650     775.6802     473.0215   1415.66650     775.6802     473.0215
   1415.65125     773.9050     473.2530   1415.65125     773.9050     473.2530
   1415.63599     773.9905     473.2348   1415.63599     773.9905     473.2348
   1415.62073     773.1461     472.8309   1415.62073     773.1461     472.8309
   1415.60547     772.3495     471.6614   1415.60547     772.3495     471.6614
   1415.59021     770.5954     472.6261   1415.59021     770.5954     472.6261
   1415.57495     769.9026     471.6478   1415.57495     769.9026     471.6478
   1415.55969     768.6320     472.3271   1415.55969     768.6320     472.3271
   1415.54443     768.1187     470.9802   1415.54443     768.1187     470.9802
   1415.52917     766.9379     471.0549   1415.52917     766.9379     471.0549
   1415.51392     766.3240     471.0699   1415.51392     766.3240     471.0699
   1415.49866     765.9447     470.9115   1415.49866     765.9447     470.9115
   1415.48340     764.9780     470.5862   1415.48340     764.9780     470.5862
   1415.46814     763.5505     469.9507   1415.46814     763.5505     469.9507
   1415.45288     763.1177     470.2484   1415.45288     763.1177     470.2484
   1415.43762     759.4128     469.0940   1415.43762     759.4128     469.0940
   1415.42236     759.9791     468.5260   1415.42236     759.9791     468.5260
   1415.40710     758.5746     468.0502   1415.40710     758.5746     468.0502
   1415.39185     757.7422     467.7600   1415.39185     757.7422     467.7600
   1415.37659     755.9265     468.3416   1415.37659     755.9265     468.3416
   1415.36133     754.0366     468.1437   1415.36133     754.0366     468.1437
   1415.34607     753.2245     467.2807   1415.34607     753.2245     467.2807
   1415.33081     752.4935     466.9234   1415.33081     752.4935     466.9234
   1415.31555     751.4600     466.4417   1415.31555     751.4600     466.4417
   1415.30029     751.1788     466.1344   1415.30029     751.1788     466.1344
   1415.28503     750.1459     466.0003   1415.28503     750.1459     466.0003
   1415.26978     748.6172     464.9500   1415.26978     748.6172     464.9500
   1415.25452     746.4762     464.9597   1415.25452     746.4762     464.9597
   1415.23926     745.1384     465.5813   1415.23926     745.1384     465.5813
   1415.22400     743.5171     463.4761   1415.22400     743.5171     463.4761
   1415.20874     741.5701     463.4930   1415.20874     741.5701     463.4930
   1415.19348     740.4052     463.4357   1415.19348     740.4052     463.4357
   1415.17822     739.3496     464.3836   1415.17822     739.3496     464.3836
   1415.16296     739.1611     462.5559   1415.16296     739.1611     462.5559
   1415.14771     736.9432     462.3511   1415.14771     736.9432     462.3511
   1415.13245     735.6886     461.8720   1415.13245     735.6886     461.8720
   1415.11719     733.6559     460.6309   1415.11719     733.6559     460.6309
   1415.10193     733.0836     460.1268   1415.10193     733.0836     460.1268
   1415.08667     731.1440     459.9895   1415.08667     731.1440     459.9895
   1415.07141     728.6057     458.7069   1415.07141     728.6057     458.7069
   1415.05615     727.5356     459.2258   1415.05615     727.5356     459.2258
   1415.04089     726.0861     457.8441   1415.04089     726.0861     457.8441
   1415.02563     724.7701     457.8827   1415.02563     724.7701     457.8827
   1415.01038     722.6459     456.6024   1415.01038     722.6459     456.6024
   1414.99512     719.6255     456.6216   1414.99512     719.6255     456.6216
   1414.97986     718.5034     455.5297   1414.97986     718.5034     455.5297
   1414.96460     717.7667     455.4665   1414.96460     717.7667     455.4665
   1414.94934     716.1422     455.5048   1414.94934     716.1422     455.5048
   1414.93408     713.7014     454.1754   1414.93408     713.7014     454.1754
   1414.91882     712.8713     453.0826   1414.91882     712.8713     453.0826
   1414.90356     710.2091     451.7037   1414.90356     710.2091     451.7037
   1414.88831     709.6635     452.3623   1414.88831     709.6635     452.3623
   1414.87305     705.5196     451.3143   1414.87305     705.5196     451.3143
   1414.85779     704.5897     450.0691   1414.85779     704.5897     450.0691
   1414.84253     704.4638     450.1061   1414.84253     704.4638     450.1061
   1414.82727     701.2363     449.3295   1414.82727     701.2363     449.3295
   1414.81201     698.7609     448.6246   1414.81201     698.7609     448.6246
   1414.79675     697.9525     447.1726   1414.79675     697.9525     447.1726
   1414.78149     695.4102     446.0395   1414.78149     695.4102     446.0395
   1414.76624     692.6057     445.6388   1414.76624     692.6057     445.6388
   1414.75098     691.1312     445.2110   1414.75098     691.1312     445.2110
   1414.73572     689.2277     445.0227   1414.73572     689.2277     445.0227
   1414.72046     687.1868     443.7497   1414.72046     687.1868     443.7497
   1414.70520     685.1846     442.4487   1414.70520     685.1846     442.4487
   1414.68994     683.0839     441.8481   1414.68994     683.0839     441.8481
   1414.67468     681.8078     440.7823   1414.67468     681.8078     440.7823
   1414.65942     678.8538     440.1732   1414.65942     678.8538     440.1732
   1414.64417     676.0415     439.2836   1414.64417     676.0415     439.2836
   1414.62891     674.2885     438.2577   1414.62891     674.2885     438.2577
   1414.61365     672.2703     437.8973   1414.61365     672.2703     437.8973
   1414.59839     671.3107     436.0810   1414.59839     671.3107     436.0810
   1414.58313     669.1284     435.4987   1414.58313     669.1284     435.4987
   1414.56787     664.8781     434.5968   1414.56787     664.8781     434.5968
   1414.55261     662.8350     433.4179   1414.55261     662.8350     433.4179
   1414.53735     661.2212     432.3300   1414.53735     661.2212     432.3300
   1414.52209     658.6019     431.7948   1414.52209     658.6019     431.7948
   1414.50684     657.3020     430.3311   1414.50684     657.3020     430.3311
   1414.49158     654.7513     429.3459   1414.49158     654.7513     429.3459
   1414.47632     652.1452     428.5130   1414.47632     652.1452     428.5130
   1414.46106     649.4606     426.9705   1414.46106     649.4606     426.9705
   1414.44580     648.0883     425.9975   1414.44580     648.0883     425.9975
   1414.43054     644.8444     425.2257   1414.43054     644.8444     425.2257
   1414.41528     641.4742     424.3080   1414.41528     641.4742     424.3080
   1414.40002     638.8083     422.4909   1414.40002     638.8083     422.4909
   1414.38477     636.7748     421.2378   1414.38477     636.7748     421.2378
   1414.36951     634.3284     420.4707   1414.36951     634.3284     420.4707
   1414.35425     632.0797     419.2158   1414.35425     632.0797     419.2158
   1414.33899     629.1740     418.3226   1414.33899     629.1740     418.3226
   1414.32373     626.7677     417.3739   1414.32373     626.7677     417.3739
   1414.30847     624.3030     415.4206   1414.30847     624.3030     415.4206
   1414.29321     622.0766     414.6155   1414.29321     622.0766     414.6155
   1414.27795     618.7664     413.0443   1414.27795     618.7664     413.0443
   1414.26270     615.6086     411.9970   1414.26270     615.6086     411.9970
   1414.24744     613.7245     410.6717   1414.24744     613.7245     410.6717
   1414.23218     611.1979     409.5005   1414.23218     611.1979     409.5005
   1414.21692     608.9529     407.7816   1414.21692     608.9529     407.7816
   1414.20166     605.1552     405.9852   1414.20166     605.1552     405.9852
   1414.18640     601.7560     404.9980   1414.18640     601.7560     404.9980
   1414.17114     599.6013     403.5610   1414.17114     599.6013     403.5610
   1414.15588     596.9366     402.6444   1414.15588     596.9366     402.6444
   1414.14062     595.0450     401.2228   1414.14062     595.0450     401.2228
   1414.12537     592.3986     400.3116   1414.12537     592.3986     400.3116
   1414.11011     589.8220     398.7390   1414.11011     589.8220     398.7390
   1414.09485     586.8610     397.6323   1414.09485     586.8610     397.6323
   1414.07959     583.2385     395.9908   1414.07959     583.2385     395.9908
   1414.06433     580.6397     394.7235   1414.06433     580.6397     394.7235
   1414.04907     578.2507     392.9485   1414.04907     578.2507     392.9485
   1414.03381     574.1211     391.4098   1414.03381     574.1211     391.4098
   1414.01855     572.9478     391.2352   1414.01855     572.9478     391.2352
   1414.00330     595.1686     396.2079   1414.00330     595.1686     396.2079
   1413.98804     568.2217     387.7406   1413.98804     568.2217     387.7406
   1413.97278     564.0450     386.5984   1413.97278     564.0450     386.5984
   1413.95752     559.5847     385.2021   1413.95752     559.5847     385.2021
   1413.94226     557.6870     383.0344   1413.94226     557.6870     383.0344
   1413.92700     555.0257     382.0513   1413.92700     555.0257     382.0513
   1413.91174     551.7288     380.1479   1413.91174     551.7288     380.1479
   1413.89648     548.8467     378.2531   1413.89648     548.8467     378.2531
   1413.88123     545.7466     377.1033   1413.88123     545.7466     377.1033
   1413.86597     543.1885     375.4578   1413.86597     543.1885     375.4578
   1413.85071     540.2751     374.1552   1413.85071     540.2751     374.1552
   1413.83545     537.6542     372.4404   1413.83545     537.6542     372.4404
   1413.82019     533.7125     371.0873   1413.82019     533.7125     371.0873
   1413.80493     530.5156     369.1644   1413.80493     530.5156     369.1644
   1413.78967     527.8907     367.3520   1413.78967     527.8907     367.3520
   1413.77441     525.8554     365.7481   1413.77441     525.8554     365.7481
   1413.75916     522.1507     364.9146   1413.75916     522.1507     364.9146
   1413.74390     518.5267     363.4629   1413.74390     518.5267     363.4629
   1413.72864     515.6566     360.8562   1413.72864     515.6566     360.8562
   1413.71338     513.2032     359.8129   1413.71338     513.2032     359.8129
   1413.69812     510.1747     358.2856   1413.69812     510.1747     358.2856
   1413.68286     507.8743     356.4805   1413.68286     507.8743     356.4805
   1413.66760     504.9074     354.7285   1413.66760     504.9074     354.7285
   1413.65234     501.2466     353.3774   1413.65234     501.2466     353.3774
   1413.63708     498.3307     351.6149   1413.63708     498.3307     351.6149
   1413.62183     495.6635     349.8156   1413.62183     495.6635     349.8156
   1413.60657     492.3581     348.3545   1413.60657     492.3581     348.3545
   1413.59131     488.9937     346.8643   1413.59131     488.9937     346.8643
   1413.57605     486.3307     345.1596   1413.57605     486.3307     345.1596
   1413.56079     483.4281     343.4855   1413.56079     483.4281     343.4855
   1413.54553     480.8463     342.3314   1413.54553     480.8463     342.3314
   1413.53027     477.9129     340.4460   1413.53027     477.9129     340.4460
   1413.51501     475.7242     338.8488   1413.51501     475.7242     338.8488
   1413.49976     472.2013     336.8214   1413.49976     472.2013     336.8214
   1413.48450     469.4995     335.9883   1413.48450     469.4995     335.9883
   1413.46924     466.5054     334.2278   1413.46924     466.5054     334.2278
   1413.45398     463.8685     332.8490   1413.45398     463.8685     332.8490
   1413.43872     461.6624     331.1496   1413.43872     461.6624     331.1496
   1413.42346     457.6895     329.2268   1413.42346     457.6895     329.2268
   1413.40820     455.9272     328.2351   1413.40820     455.9272     328.2351
   1413.39294     453.5528     326.2460   1413.39294     453.5528     326.2460
   1413.37769     450.6697     324.6314   1413.37769     450.6697     324.6314
   1413.36243     447.0833     322.9538   1413.36243     447.0833     322.9538
   1413.34717     444.5498     321.7777   1413.34717     444.5498     321.7777
   1413.33191     441.6856     320.2070   1413.33191     441.6856     320.2070
   1413.31665     438.9883     318.7730   1413.31665     438.9883     318.7730
   1413.30139     436.4062     316.8587   1413.30139     436.4062     316.8587
   1413.28613     434.4548     315.0722   1413.28613     434.4548     315.0722
   1413.27087     431.8163     313.4702   1413.27087     431.8163     313.4702
   1413.25562     428.7997     312.7090   1413.25562     428.7997     312.7090
   1413.24036     426.5332     311.4890   1413.24036     426.5332     311.4890
   1413.22510     423.7151     309.0659   1413.22510     423.7151     309.0659
   1413.20984     421.6717     308.1326   1413.20984     421.6717     308.1326
   1413.19458     419.7488     306.3240   1413.19458     419.7488     306.3240
   1413.17932     417.3679     305.1685   1413.17932     417.3679     305.1685
   1413.16406     414.2492     303.4117   1413.16406     414.2492     303.4117
   1413.14880     411.9361     301.8157   1413.14880     411.9361     301.8157
   1413.13354     410.5054     301.1886   1413.13354     410.5054     301.1886
   1413.11829     407.7821     299.1646   1413.11829     407.7821     299.1646
   1413.10303     405.2863     298.0039   1413.10303     405.2863     298.0039
   1413.08777     403.3969     297.1852   1413.08777     403.3969     297.1852
   1413.07251     400.8951     295.5406   1413.07251     400.8951     295.5406
   1413.05725     398.7570     293.9365   1413.05725     398.7570     293.9365
   1413.04199     396.4884     292.8672   1413.04199     396.4884     292.8672
   1413.02673     394.4602     291.3334   1413.02673     394.4602     291.3334
   1413.01147     392.4241     290.1947   1413.01147     392.4241     290.1947
   1412.99622     389.5011     289.4831   1412.99622     389.5011     289.4831
   1412.98096     388.4585     287.7186   1412.98096     388.4585     287.7186
   1412.96570     386.8014     286.6140   1412.96570     386.8014     286.6140
   1412.95044     384.4781     285.4366   1412.95044     384.4781     285.4366
   1412.93518     382.7409     284.3920   1412.93518     382.7409     284.3920
   1412.91992     380.8874     283.1404   1412.91992     380.8874     283.1404
   1412.90466     379.2231     281.7560   1412.90466     379.2231     281.7560
   1412.88940     377.6244     280.8293   1412.88940     377.6244     280.8293
   1412.87415     375.8852     280.0570   1412.87415     375.8852     280.0570
   1412.85889     374.6376     278.1874   1412.85889     374.6376     278.1874
   1412.84363     372.6028     277.5166   1412.84363     372.6028     277.5166
   1412.82837     371.4134     276.8113   1412.82837     371.4134     276.8113
   1412.81311     369.4754     275.9215   1412.81311     369.4754     275.9215
   1412.79785     368.3485     274.2687   1412.79785     368.3485     274.2687
   1412.78259     367.3995     273.4816   1412.78259     367.3995     273.4816
   1412.76733     365.3321     273.0953   1412.76733     365.3321     273.0953
   1412.75208     364.2647     271.9687   1412.75208     364.2647     271.9687
   1412.73682     363.0039     270.9788   1412.73682     363.0039     270.9788
   1412.72156     361.4691     270.7041   1412.72156     361.4691     270.7041
   1412.70630     360.5714     269.1836   1412.70630     360.5714     269.1836
   1412.69104     359.6344     268.8281   1412.69104     359.6344     268.8281
   1412.67578     358.5460     268.2493   1412.67578     358.5460     268.2493
   1412.66052     357.1781     267.0523   1412.66052     357.1781     267.0523
   1412.64526     356.5850     266.6259   1412.64526     356.5850     266.6259
   1412.63000     355.7721     266.1237   1412.63000     355.7721     266.1237
   1412.61475     354.8820     265.2591   1412.61475     354.8820     265.2591
   1412.59949     353.7828     264.6476   1412.59949     353.7828     264.6476
   1412.58423     353.4619     264.3952   1412.58423     353.4619     264.3952
   1412.56897     352.7990     264.0658   1412.56897     352.7990     264.0658
   1412.55371     351.8957     263.4785   1412.55371     351.8957     263.4785
   1412.53845     350.8196     262.6935   1412.53845     350.8196     262.6935
   1412.52319     350.3532     262.3347   1412.52319     350.3532     262.3347
   1412.50793     350.0439     262.1081   1412.50793     350.0439     262.1081
   1412.49268     349.6043     262.3270   1412.49268     349.6043     262.3270
   1412.47742     349.4765     261.4083   1412.47742     349.4765     261.4083
   1412.46216     348.7224     261.0626   1412.46216     348.7224     261.0626
   1412.44690     347.9811     260.7168   1412.44690     347.9811     260.7168
   1412.43164     348.6667     261.0306   1412.43164     348.6667     261.0306
   1412.41638     348.4345     260.7226   1412.41638     348.4345     260.7226
   1412.40112     348.0504     260.3523   1412.40112     348.0504     260.3523
   1412.38586     348.6954     260.1216   1412.38586     348.6954     260.1216
   1412.37061     347.9265     260.0783   1412.37061     347.9265     260.0783
   1412.35535     347.9335     260.4226   1412.35535     347.9335     260.4226
   1412.34009     348.4577     260.2462   1412.34009     348.4577     260.2462
   1412.32483     348.1814     260.0009   1412.32483     348.1814     260.0009
   1412.30957     348.3371     260.5392   1412.30957     348.3371     260.5392
   1412.29431     348.6200     260.4865   1412.29431     348.6200     260.4865
   1412.27905     348.7975     260.8997   1412.27905     348.7975     260.8997
   1412.26379     349.3802     260.8071   1412.26379     349.3802     260.8071
   1412.24854     349.4102     261.1583   1412.24854     349.4102     261.1583
   1412.23328     349.7365     261.2919   1412.23328     349.7365     261.2919
   1412.21802     350.9613     261.6054   1412.21802     350.9613     261.6054
   1412.20276     350.9830     262.4373   1412.20276     350.9830     262.4373