#     FILENAME=!Skynet_57528_lach-cc-217_20627_21042.cyb.fits
#     BASENAME=Skynet_57528_lach-cc-217_20627_21042
#     SRC_NAME=lach-cc-217
#     OBSERVER=ccmadison16_9505
#     DATE_OBS=2016-05-20T20:00:50.250
#        OBSID=20627
#      SCANNUM=21042
#          MJD=57528.8350
#          UTC=72139
#     SCANTYPE=track
#     DATAMODE=HIRES
#     TUNEFREQ=1420.0000
# Actual_FREQ1=1420.0000
# Actual_FREQ2=1420.0000
#    LO1Tuning=6870.000
#     RFFILTER=1355_1435
#        OBSBW=-15.6250
#        NCHAN=1024 
#        FOCUS=37.0709
#           RA=06:58:52.71
#          DEC=-03:37:10.07
#      RA(hrs)=6.981300
#     DEC(deg)=-3.619500
#    AZIM(deg)=171.105
#    ELEV(deg)=47.449
#     IFattens=10.00, 9.00
#      WARNING=None
#    TCAL_XL1=7.9635
#    TCAL_YR1=9.1340
#    TCAL_XL2=7.9635
#    TCAL_YR2=9.1340
#     TRX_XL1=11.7060
#     TRX_YR1=11.7060
#     TRX_XL2=11.7060
#     TRX_YR2=11.7060
#        TAVE=1.0000
#Freq1(MHz)          XL1          YR1  Freq2(MHz)          XL2          YR2 

   1427.81250     354.1077     260.7261   1427.81250     354.1077     260.7261
   1427.79724     354.4812     260.9905   1427.79724     354.4812     260.9905
   1427.78198     355.0887     261.4620   1427.78198     355.0887     261.4620
   1427.76672     355.6937     261.9108   1427.76672     355.6937     261.9108
   1427.75146     356.3358     262.5441   1427.75146     356.3358     262.5441
   1427.73621     357.2351     263.0493   1427.73621     357.2351     263.0493
   1427.72095     358.6970     264.0748   1427.72095     358.6970     264.0748
   1427.70569     359.0399     264.7198   1427.70569     359.0399     264.7198
   1427.69043     360.7115     265.1185   1427.69043     360.7115     265.1185
   1427.67517     361.2190     265.8262   1427.67517     361.2190     265.8262
   1427.65991     362.6394     266.8579   1427.65991     362.6394     266.8579
   1427.64465     363.2976     267.6872   1427.64465     363.2976     267.6872
   1427.62939     363.9203     268.7500   1427.62939     363.9203     268.7500
   1427.61414     366.2935     269.4880   1427.61414     366.2935     269.4880
   1427.59888     366.5250     270.4311   1427.59888     366.5250     270.4311
   1427.58362     368.5288     271.5559   1427.58362     368.5288     271.5559
   1427.56836     369.7564     272.2005   1427.56836     369.7564     272.2005
   1427.55310     371.2441     273.6825   1427.55310     371.2441     273.6825
   1427.53784     372.7742     274.9961   1427.53784     372.7742     274.9961
   1427.52258     374.0623     275.8099   1427.52258     374.0623     275.8099
   1427.50732     375.6849     277.1892   1427.50732     375.6849     277.1892
   1427.49207     377.5019     278.5771   1427.49207     377.5019     278.5771
   1427.47681     378.4054     279.8176   1427.47681     378.4054     279.8176
   1427.46155     380.5068     280.8998   1427.46155     380.5068     280.8998
   1427.44629     382.1732     282.0817   1427.44629     382.1732     282.0817
   1427.43103     383.8186     283.7350   1427.43103     383.8186     283.7350
   1427.41577     385.5464     285.2477   1427.41577     385.5464     285.2477
   1427.40051     387.3773     286.4497   1427.40051     387.3773     286.4497
   1427.38525     389.5544     287.8356   1427.38525     389.5544     287.8356
   1427.37000     391.2315     289.5954   1427.37000     391.2315     289.5954
   1427.35474     393.3544     290.8181   1427.35474     393.3544     290.8181
   1427.33948     394.9366     292.3865   1427.33948     394.9366     292.3865
   1427.32422     397.0885     294.4586   1427.32422     397.0885     294.4586
   1427.30896     399.0438     295.7454   1427.30896     399.0438     295.7454
   1427.29370     400.6939     297.4303   1427.29370     400.6939     297.4303
   1427.27844     402.4273     299.0136   1427.27844     402.4273     299.0136
   1427.26318     405.2264     301.1208   1427.26318     405.2264     301.1208
   1427.24792     408.5655     301.9726   1427.24792     408.5655     301.9726
   1427.23267     409.8667     304.3255   1427.23267     409.8667     304.3255
   1427.21741     411.8584     306.1408   1427.21741     411.8584     306.1408
   1427.20215     414.3888     307.7928   1427.20215     414.3888     307.7928
   1427.18689     416.4803     309.9041   1427.18689     416.4803     309.9041
   1427.17163     419.4770     311.9405   1427.17163     419.4770     311.9405
   1427.15637     421.4847     314.0070   1427.15637     421.4847     314.0070
   1427.14111     423.7871     315.8097   1427.14111     423.7871     315.8097
   1427.12585     426.6600     317.5131   1427.12585     426.6600     317.5131
   1427.11060     428.5396     319.6451   1427.11060     428.5396     319.6451
   1427.09534     430.9047     322.3485   1427.09534     430.9047     322.3485
   1427.08008     432.9213     323.7027   1427.08008     432.9213     323.7027
   1427.06482     436.0505     326.2997   1427.06482     436.0505     326.2997
   1427.04956     438.1781     328.1109   1427.04956     438.1781     328.1109
   1427.03430     441.3286     330.1299   1427.03430     441.3286     330.1299
   1427.01904     443.4106     332.5888   1427.01904     443.4106     332.5888
   1427.00378     445.8208     335.0206   1427.00378     445.8208     335.0206
   1426.98853     448.4741     336.3959   1426.98853     448.4741     336.3959
   1426.97327     451.1574     339.0854   1426.97327     451.1574     339.0854
   1426.95801     453.0776     341.1272   1426.95801     453.0776     341.1272
   1426.94275     456.5268     343.6540   1426.94275     456.5268     343.6540
   1426.92749     459.4741     345.6359   1426.92749     459.4741     345.6359
   1426.91223     461.0595     347.1909   1426.91223     461.0595     347.1909
   1426.89697     464.2321     350.6961   1426.89697     464.2321     350.6961
   1426.88171     466.9413     352.5739   1426.88171     466.9413     352.5739
   1426.86646     469.3542     355.2375   1426.86646     469.3542     355.2375
   1426.85120     472.4116     357.4361   1426.85120     472.4116     357.4361
   1426.83594     474.9790     359.9934   1426.83594     474.9790     359.9934
   1426.82068     477.6060     363.1901   1426.82068     477.6060     363.1901
   1426.80542     480.0978     363.9955   1426.80542     480.0978     363.9955
   1426.79016     482.8950     367.1320   1426.79016     482.8950     367.1320
   1426.77490     486.5242     369.5947   1426.77490     486.5242     369.5947
   1426.75964     489.0259     372.0074   1426.75964     489.0259     372.0074
   1426.74438     490.5532     374.0612   1426.74438     490.5532     374.0612
   1426.72913     493.9612     376.3931   1426.72913     493.9612     376.3931
   1426.71387     496.4964     379.2552   1426.71387     496.4964     379.2552
   1426.69861     499.3401     381.3338   1426.69861     499.3401     381.3338
   1426.68335     502.0840     384.0211   1426.68335     502.0840     384.0211
   1426.66809     504.5542     387.1546   1426.66809     504.5542     387.1546
   1426.65283     507.0614     389.3440   1426.65283     507.0614     389.3440
   1426.63757     510.4212     391.1584   1426.63757     510.4212     391.1584
   1426.62231     513.8025     396.2931   1426.62231     513.8025     396.2931
   1426.60706     515.6554     396.8976   1426.60706     515.6554     396.8976
   1426.59180     518.6608     399.1948   1426.59180     518.6608     399.1948
   1426.57654     520.7441     401.9050   1426.57654     520.7441     401.9050
   1426.56128     523.2554     404.9377   1426.56128     523.2554     404.9377
   1426.54602     525.6126     407.1717   1426.54602     525.6126     407.1717
   1426.53076     528.4706     409.8425   1426.53076     528.4706     409.8425
   1426.51550     530.9852     412.1664   1426.51550     530.9852     412.1664
   1426.50024     533.7835     415.4732   1426.50024     533.7835     415.4732
   1426.48499     536.4615     417.1175   1426.48499     536.4615     417.1175
   1426.46973     539.2310     419.6094   1426.46973     539.2310     419.6094
   1426.45447     541.6454     422.2678   1426.45447     541.6454     422.2678
   1426.43921     544.6484     425.0303   1426.43921     544.6484     425.0303
   1426.42395     546.8298     426.6962   1426.42395     546.8298     426.6962
   1426.40869     549.9365     429.5560   1426.40869     549.9365     429.5560
   1426.39343     552.4894     432.9162   1426.39343     552.4894     432.9162
   1426.37817     555.6433     435.3906   1426.37817     555.6433     435.3906
   1426.36292     557.0826     437.0975   1426.36292     557.0826     437.0975
   1426.34766     560.5284     440.6234   1426.34766     560.5284     440.6234
   1426.33240     563.1115     442.5226   1426.33240     563.1115     442.5226
   1426.31714     564.3521     446.0040   1426.31714     564.3521     446.0040
   1426.30188     567.5261     448.8345   1426.30188     567.5261     448.8345
   1426.28662     570.2832     449.8521   1426.28662     570.2832     449.8521
   1426.27136     573.5100     452.9308   1426.27136     573.5100     452.9308
   1426.25610     574.9314     455.8714   1426.25610     574.9314     455.8714
   1426.24084     578.1039     457.7631   1426.24084     578.1039     457.7631
   1426.22559     580.0615     460.6624   1426.22559     580.0615     460.6624
   1426.21033     583.5219     462.7945   1426.21033     583.5219     462.7945
   1426.19507     584.1653     465.1229   1426.19507     584.1653     465.1229
   1426.17981     586.9800     467.9323   1426.17981     586.9800     467.9323
   1426.16455     589.3239     470.2163   1426.16455     589.3239     470.2163
   1426.14929     591.8148     473.8855   1426.14929     591.8148     473.8855
   1426.13403     594.0519     475.7430   1426.13403     594.0519     475.7430
   1426.11877     596.4283     477.4171   1426.11877     596.4283     477.4171
   1426.10352     597.8090     480.2000   1426.10352     597.8090     480.2000
   1426.08826     600.7783     482.8438   1426.08826     600.7783     482.8438
   1426.07300     603.3039     485.0363   1426.07300     603.3039     485.0363
   1426.05774     605.5792     487.4868   1426.05774     605.5792     487.4868
   1426.04248     606.7294     490.2516   1426.04248     606.7294     490.2516
   1426.02722     609.3665     492.4698   1426.02722     609.3665     492.4698
   1426.01196     611.0475     494.8149   1426.01196     611.0475     494.8149
   1425.99670     613.9672     497.0879   1425.99670     613.9672     497.0879
   1425.98145     615.7462     499.7553   1425.98145     615.7462     499.7553
   1425.96619     616.7854     501.9404   1425.96619     616.7854     501.9404
   1425.95093     619.4852     503.7103   1425.95093     619.4852     503.7103
   1425.93567     621.2252     506.5899   1425.93567     621.2252     506.5899
   1425.92041     623.4221     509.2151   1425.92041     623.4221     509.2151
   1425.90515     625.0454     510.7696   1425.90515     625.0454     510.7696
   1425.88989     627.4299     513.7213   1425.88989     627.4299     513.7213
   1425.87463     629.5862     515.1713   1425.87463     629.5862     515.1713
   1425.85938     632.2529     517.3013   1425.85938     632.2529     517.3013
   1425.84412     632.6156     520.0390   1425.84412     632.6156     520.0390
   1425.82886     633.2712     522.5178   1425.82886     633.2712     522.5178
   1425.81360     636.3655     524.0432   1425.81360     636.3655     524.0432
   1425.79834     638.1338     526.7411   1425.79834     638.1338     526.7411
   1425.78308     639.3377     528.5388   1425.78308     639.3377     528.5388
   1425.76782     640.8182     531.3358   1425.76782     640.8182     531.3358
   1425.75256     642.2524     533.2961   1425.75256     642.2524     533.2961
   1425.73730     644.5196     535.1166   1425.73730     644.5196     535.1166
   1425.72205     645.9716     537.0427   1425.72205     645.9716     537.0427
   1425.70679     647.1850     539.4932   1425.70679     647.1850     539.4932
   1425.69153     648.5715     541.4575   1425.69153     648.5715     541.4575
   1425.67627     650.5561     544.2934   1425.67627     650.5561     544.2934
   1425.66101     651.4171     545.9512   1425.66101     651.4171     545.9512
   1425.64575     653.9831     546.6371   1425.64575     653.9831     546.6371
   1425.63049     655.3330     548.9436   1425.63049     655.3330     548.9436
   1425.61523     656.2994     551.1608   1425.61523     656.2994     551.1608
   1425.59998     657.5703     553.7628   1425.59998     657.5703     553.7628
   1425.58472     659.2185     555.9269   1425.58472     659.2185     555.9269
   1425.56946     659.8431     557.9835   1425.56946     659.8431     557.9835
   1425.55420     661.7230     559.1848   1425.55420     661.7230     559.1848
   1425.53894     662.0977     560.9246   1425.53894     662.0977     560.9246
   1425.52368     663.4205     562.2701   1425.52368     663.4205     562.2701
   1425.50842     664.9590     565.3361   1425.50842     664.9590     565.3361
   1425.49316     665.9066     566.7185   1425.49316     665.9066     566.7185
   1425.47791     667.0291     568.7505   1425.47791     667.0291     568.7505
   1425.46265     668.7988     570.0641   1425.46265     668.7988     570.0641
   1425.44739     668.9681     571.4755   1425.44739     668.9681     571.4755
   1425.43213     669.9218     573.7062   1425.43213     669.9218     573.7062
   1425.41687     672.6913     577.6773   1425.41687     672.6913     577.6773
   1425.40161     672.8148     577.6927   1425.40161     672.8148     577.6927
   1425.38635     674.1949     578.9207   1425.38635     674.1949     578.9207
   1425.37109     673.7737     581.1741   1425.37109     673.7737     581.1741
   1425.35583     675.5403     581.9905   1425.35583     675.5403     581.9905
   1425.34058     677.7100     584.4329   1425.34058     677.7100     584.4329
   1425.32532     677.2350     585.8260   1425.32532     677.2350     585.8260
   1425.31006     678.5321     586.3422   1425.31006     678.5321     586.3422
   1425.29480     680.0189     588.4454   1425.29480     680.0189     588.4454
   1425.27954     679.9425     590.0627   1425.27954     679.9425     590.0627
   1425.26428     680.6096     592.0441   1425.26428     680.6096     592.0441
   1425.24902     682.1713     593.1512   1425.24902     682.1713     593.1512
   1425.23376     683.0251     595.0695   1425.23376     683.0251     595.0695
   1425.21851     682.8464     597.2325   1425.21851     682.8464     597.2325
   1425.20325     683.9581     598.1505   1425.20325     683.9581     598.1505
   1425.18799     684.3819     599.0954   1425.18799     684.3819     599.0954
   1425.17273     685.2969     601.1732   1425.17273     685.2969     601.1732
   1425.15747     685.4906     602.2711   1425.15747     685.4906     602.2711
   1425.14221     686.5704     603.6309   1425.14221     686.5704     603.6309
   1425.12695     686.6343     604.4173   1425.12695     686.6343     604.4173
   1425.11169     686.9468     606.1562   1425.11169     686.9468     606.1562
   1425.09644     688.3486     607.0858   1425.09644     688.3486     607.0858
   1425.08118     687.5377     608.3099   1425.08118     687.5377     608.3099
   1425.06592     689.0283     611.1320   1425.06592     689.0283     611.1320
   1425.05066     690.0165     611.3907   1425.05066     690.0165     611.3907
   1425.03540     689.8828     612.1453   1425.03540     689.8828     612.1453
   1425.02014     690.7349     613.4312   1425.02014     690.7349     613.4312
   1425.00488     689.6603     615.6341   1425.00488     689.6603     615.6341
   1424.98962     693.0257     616.9326   1424.98962     693.0257     616.9326
   1424.97437     691.3339     616.2285   1424.97437     691.3339     616.2285
   1424.95911     693.0541     618.6786   1424.95911     693.0541     618.6786
   1424.94385     692.5372     620.0515   1424.94385     692.5372     620.0515
   1424.92859     692.0102     620.8766   1424.92859     692.0102     620.8766
   1424.91333     694.5609     620.2619   1424.91333     694.5609     620.2619
   1424.89807     692.9683     622.6631   1424.89807     692.9683     622.6631
   1424.88281     694.0815     623.8339   1424.88281     694.0815     623.8339
   1424.86755     693.1449     624.3181   1424.86755     693.1449     624.3181
   1424.85229     693.4189     624.8939   1424.85229     693.4189     624.8939
   1424.83704     694.7325     626.7498   1424.83704     694.7325     626.7498
   1424.82178     694.2395     627.9335   1424.82178     694.2395     627.9335
   1424.80652     695.2388     628.2490   1424.80652     695.2388     628.2490
   1424.79126     695.3548     628.9858   1424.79126     695.3548     628.9858
   1424.77600     694.6281     630.6372   1424.77600     694.6281     630.6372
   1424.76074     695.0142     631.9125   1424.76074     695.0142     631.9125
   1424.74548     695.9475     631.3165   1424.74548     695.9475     631.3165
   1424.73022     695.5663     631.7078   1424.73022     695.5663     631.7078
   1424.71497     697.0726     632.3982   1424.71497     697.0726     632.3982
   1424.69971     695.9741     633.4941   1424.69971     695.9741     633.4941
   1424.68445     696.3721     634.0955   1424.68445     696.3721     634.0955
   1424.66919     696.6730     635.3948   1424.66919     696.6730     635.3948
   1424.65393     695.6252     635.7936   1424.65393     695.6252     635.7936
   1424.63867     696.4150     636.1392   1424.63867     696.4150     636.1392
   1424.62341     695.2682     637.5140   1424.62341     695.2682     637.5140
   1424.60815     696.7904     636.8615   1424.60815     696.7904     636.8615
   1424.59290     697.7346     639.2974   1424.59290     697.7346     639.2974
   1424.57764     696.6897     639.6768   1424.57764     696.6897     639.6768
   1424.56238     696.6674     640.2603   1424.56238     696.6674     640.2603
   1424.54712     696.7303     640.6019   1424.54712     696.7303     640.6019
   1424.53186     696.8495     640.8395   1424.53186     696.8495     640.8395
   1424.51660     697.0820     641.7203   1424.51660     697.0820     641.7203
   1424.50134     696.3345     641.8160   1424.50134     696.3345     641.8160
   1424.48608     696.0778     642.0100   1424.48608     696.0778     642.0100
   1424.47083     696.2159     643.0262   1424.47083     696.2159     643.0262
   1424.45557     696.0176     644.3926   1424.45557     696.0176     644.3926
   1424.44031     696.5173     643.7172   1424.44031     696.5173     643.7172
   1424.42505     695.0362     643.4168   1424.42505     695.0362     643.4168
   1424.40979     696.3396     644.4384   1424.40979     696.3396     644.4384
   1424.39453     695.7608     644.5643   1424.39453     695.7608     644.5643
   1424.37927     696.0051     645.1151   1424.37927     696.0051     645.1151
   1424.36401     695.9685     644.9909   1424.36401     695.9685     644.9909
   1424.34875     696.6620     645.4572   1424.34875     696.6620     645.4572
   1424.33350     695.5740     645.9304   1424.33350     695.5740     645.9304
   1424.31824     695.0914     646.6270   1424.31824     695.0914     646.6270
   1424.30298     695.9594     646.7817   1424.30298     695.9594     646.7817
   1424.28772     695.6386     646.8912   1424.28772     695.6386     646.8912
   1424.27246     694.8334     646.3089   1424.27246     694.8334     646.3089
   1424.25720     695.6155     647.3434   1424.25720     695.6155     647.3434
   1424.24194     693.7227     646.5804   1424.24194     693.7227     646.5804
   1424.22668     695.3995     646.6226   1424.22668     695.3995     646.6226
   1424.21143     694.9191     647.4327   1424.21143     694.9191     647.4327
   1424.19617     694.5436     648.1259   1424.19617     694.5436     648.1259
   1424.18091     695.1478     647.7325   1424.18091     695.1478     647.7325
   1424.16565     693.3485     647.6490   1424.16565     693.3485     647.6490
   1424.15039     693.7255     648.0881   1424.15039     693.7255     648.0881
   1424.13513     694.8333     648.4643   1424.13513     694.8333     648.4643
   1424.11987     693.6512     647.8978   1424.11987     693.6512     647.8978
   1424.10461     692.7029     647.1637   1424.10461     692.7029     647.1637
   1424.08936     693.7705     647.7325   1424.08936     693.7705     647.7325
   1424.07410     692.3796     648.2411   1424.07410     692.3796     648.2411
   1424.05884     692.6479     648.5314   1424.05884     692.6479     648.5314
   1424.04358     691.9642     647.0501   1424.04358     691.9642     647.0501
   1424.02832     692.3804     646.4117   1424.02832     692.3804     646.4117
   1424.01306     691.7249     647.6116   1424.01306     691.7249     647.6116
   1423.99780     691.9131     647.3805   1423.99780     691.9131     647.3805
   1423.98254     691.5732     646.8936   1423.98254     691.5732     646.8936
   1423.96729     691.0536     646.9254   1423.96729     691.0536     646.9254
   1423.95203     691.6922     647.3091   1423.95203     691.6922     647.3091
   1423.93677     691.8250     646.2759   1423.93677     691.8250     646.2759
   1423.92151     691.6407     648.1299   1423.92151     691.6407     648.1299
   1423.90625     690.2481     646.2100   1423.90625     690.2481     646.2100
   1423.89099     691.2487     646.4697   1423.89099     691.2487     646.4697
   1423.87573     690.1426     646.8918   1423.87573     690.1426     646.8918
   1423.86047     689.7940     645.6078   1423.86047     689.7940     645.6078
   1423.84521     689.9346     645.2523   1423.84521     689.9346     645.2523
   1423.82996     689.0331     644.8443   1423.82996     689.0331     644.8443
   1423.81470     688.2178     644.5630   1423.81470     688.2178     644.5630
   1423.79944     690.7341     644.3773   1423.79944     690.7341     644.3773
   1423.78418     688.4816     643.8103   1423.78418     688.4816     643.8103
   1423.76892     688.0421     643.8242   1423.76892     688.0421     643.8242
   1423.75366     688.2226     644.2201   1423.75366     688.2226     644.2201
   1423.73840     687.6641     642.7786   1423.73840     687.6641     642.7786
   1423.72314     687.4909     642.4894   1423.72314     687.4909     642.4894
   1423.70789     687.7795     642.3675   1423.70789     687.7795     642.3675
   1423.69263     688.4522     642.8177   1423.69263     688.4522     642.8177
   1423.67737     686.9888     641.6637   1423.67737     686.9888     641.6637
   1423.66211     687.2018     642.0293   1423.66211     687.2018     642.0293
   1423.64685     686.6462     642.0423   1423.64685     686.6462     642.0423
   1423.63159     686.9053     640.3306   1423.63159     686.9053     640.3306
   1423.61633     685.8604     638.5903   1423.61633     685.8604     638.5903
   1423.60107     686.7695     639.6996   1423.60107     686.7695     639.6996
   1423.58582     685.5713     638.1176   1423.58582     685.5713     638.1176
   1423.57056     685.3783     637.2729   1423.57056     685.3783     637.2729
   1423.55530     684.4642     637.9968   1423.55530     684.4642     637.9968
   1423.54004     685.4116     636.7422   1423.54004     685.4116     636.7422
   1423.52478     684.5363     635.7297   1423.52478     684.5363     635.7297
   1423.50952     684.0962     636.2492   1423.50952     684.0962     636.2492
   1423.49426     684.5870     634.9117   1423.49426     684.5870     634.9117
   1423.47900     682.7322     635.1132   1423.47900     682.7322     635.1132
   1423.46375     684.6151     633.5690   1423.46375     684.6151     633.5690
   1423.44849     683.9641     632.4238   1423.44849     683.9641     632.4238
   1423.43323     683.9209     631.8730   1423.43323     683.9209     631.8730
   1423.41797     684.4476     631.7692   1423.41797     684.4476     631.7692
   1423.40271     682.8604     630.7144   1423.40271     682.8604     630.7144
   1423.38745     683.4835     630.9810   1423.38745     683.4835     630.9810
   1423.37219     684.5527     630.3886   1423.37219     684.5527     630.3886
   1423.35693     683.4387     628.8497   1423.35693     683.4387     628.8497
   1423.34167     682.3931     628.4238   1423.34167     682.3931     628.4238
   1423.32642     682.2540     627.3751   1423.32642     682.2540     627.3751
   1423.31116     682.9559     626.2966   1423.31116     682.9559     626.2966
   1423.29590     681.0337     625.3087   1423.29590     681.0337     625.3087
   1423.28064     681.3632     625.0643   1423.28064     681.3632     625.0643
   1423.26538     681.3800     623.3191   1423.26538     681.3800     623.3191
   1423.25012     680.7879     623.7501   1423.25012     680.7879     623.7501
   1423.23486     681.4353     622.8019   1423.23486     681.4353     622.8019
   1423.21960     680.5648     621.6082   1423.21960     680.5648     621.6082
   1423.20435     679.5145     620.2461   1423.20435     679.5145     620.2461
   1423.18909     680.4454     620.9417   1423.18909     680.4454     620.9417
   1423.17383     679.8549     619.4274   1423.17383     679.8549     619.4274
   1423.15857     679.4818     618.4595   1423.15857     679.4818     618.4595
   1423.14331     679.5751     616.7355   1423.14331     679.5751     616.7355
   1423.12805     679.4674     615.7575   1423.12805     679.4674     615.7575
   1423.11279     678.4974     615.7756   1423.11279     678.4974     615.7756
   1423.09753     677.5209     615.4113   1423.09753     677.5209     615.4113
   1423.08228     677.9982     614.2825   1423.08228     677.9982     614.2825
   1423.06702     678.4655     612.4205   1423.06702     678.4655     612.4205
   1423.05176     678.5614     613.1702   1423.05176     678.5614     613.1702
   1423.03650     677.1045     611.0501   1423.03650     677.1045     611.0501
   1423.02124     679.0578     611.1048   1423.02124     679.0578     611.1048
   1423.00598     677.5303     609.1191   1423.00598     677.5303     609.1191
   1422.99072     677.1521     607.6798   1422.99072     677.1521     607.6798
   1422.97546     678.3760     607.8036   1422.97546     678.3760     607.8036
   1422.96021     676.4730     605.6467   1422.96021     676.4730     605.6467
   1422.94495     676.8994     605.1371   1422.94495     676.8994     605.1371
   1422.92969     676.3688     603.9239   1422.92969     676.3688     603.9239
   1422.91443     676.6192     603.4957   1422.91443     676.6192     603.4957
   1422.89917     676.5245     602.3485   1422.89917     676.5245     602.3485
   1422.88391     675.5291     602.2979   1422.88391     675.5291     602.2979
   1422.86865     676.0920     599.8962   1422.86865     676.0920     599.8962
   1422.85339     675.6174     598.4597   1422.85339     675.6174     598.4597
   1422.83813     675.8912     598.4531   1422.83813     675.8912     598.4531
   1422.82288     674.2299     595.8821   1422.82288     674.2299     595.8821
   1422.80762     674.8873     596.1517   1422.80762     674.8873     596.1517
   1422.79236     675.1194     594.5683   1422.79236     675.1194     594.5683
   1422.77710     674.1141     593.6108   1422.77710     674.1141     593.6108
   1422.76184     675.1930     593.6080   1422.76184     675.1930     593.6080
   1422.74658     673.1691     591.8177   1422.74658     673.1691     591.8177
   1422.73132     673.0623     590.5426   1422.73132     673.0623     590.5426
   1422.71606     673.8466     589.4543   1422.71606     673.8466     589.4543
   1422.70081     673.2619     588.0752   1422.70081     673.2619     588.0752
   1422.68555     671.9506     587.0101   1422.68555     671.9506     587.0101
   1422.67029     672.7257     585.4389   1422.67029     672.7257     585.4389
   1422.65503     671.7731     584.6295   1422.65503     671.7731     584.6295
   1422.63977     672.2411     583.7942   1422.63977     672.2411     583.7942
   1422.62451     672.2737     582.9957   1422.62451     672.2737     582.9957
   1422.60925     671.6843     581.9594   1422.60925     671.6843     581.9594
   1422.59399     673.0469     580.3099   1422.59399     673.0469     580.3099
   1422.57874     672.3474     579.5032   1422.57874     672.3474     579.5032
   1422.56348     671.6326     579.1062   1422.56348     671.6326     579.1062
   1422.54822     671.8770     577.7839   1422.54822     671.8770     577.7839
   1422.53296     672.5309     575.9807   1422.53296     672.5309     575.9807
   1422.51770     670.4763     574.7591   1422.51770     670.4763     574.7591
   1422.50244     671.4878     574.7301   1422.50244     671.4878     574.7301
   1422.48718     669.9529     572.6656   1422.48718     669.9529     572.6656
   1422.47192     670.6810     571.6650   1422.47192     670.6810     571.6650
   1422.45667     671.1030     570.6332   1422.45667     671.1030     570.6332
   1422.44141     670.4052     568.8246   1422.44141     670.4052     568.8246
   1422.42615     670.3411     568.3975   1422.42615     670.3411     568.3975
   1422.41089     670.9124     565.7053   1422.41089     670.9124     565.7053
   1422.39563     668.9436     565.8350   1422.39563     668.9436     565.8350
   1422.38037     669.1639     564.8491   1422.38037     669.1639     564.8491
   1422.36511     669.2245     563.2235   1422.36511     669.2245     563.2235
   1422.34985     669.9039     562.0720   1422.34985     669.9039     562.0720
   1422.33459     669.8127     560.2480   1422.33459     669.8127     560.2480
   1422.31934     668.8568     559.8237   1422.31934     668.8568     559.8237
   1422.30408     668.2468     559.0553   1422.30408     668.2468     559.0553
   1422.28882     668.5471     557.9995   1422.28882     668.5471     557.9995
   1422.27356     668.3356     554.6739   1422.27356     668.3356     554.6739
   1422.25830     668.4724     554.8307   1422.25830     668.4724     554.8307
   1422.24304     668.4615     553.5007   1422.24304     668.4615     553.5007
   1422.22778     668.3723     553.0948   1422.22778     668.3723     553.0948
   1422.21252     667.0213     551.0790   1422.21252     667.0213     551.0790
   1422.19727     669.0917     550.0156   1422.19727     669.0917     550.0156
   1422.18201     666.9021     548.3361   1422.18201     666.9021     548.3361
   1422.16675     666.8751     548.0369   1422.16675     666.8751     548.0369
   1422.15149     668.0620     547.1855   1422.15149     668.0620     547.1855
   1422.13623     667.8582     545.2181   1422.13623     667.8582     545.2181
   1422.12097     666.8021     543.9626   1422.12097     666.8021     543.9626
   1422.10571     666.9606     543.5204   1422.10571     666.9606     543.5204
   1422.09045     667.1318     541.9995   1422.09045     667.1318     541.9995
   1422.07520     666.4962     541.1464   1422.07520     666.4962     541.1464
   1422.05994     665.8976     539.4840   1422.05994     665.8976     539.4840
   1422.04468     666.2771     538.1674   1422.04468     666.2771     538.1674
   1422.02942     666.2271     536.6321   1422.02942     666.2271     536.6321
   1422.01416     665.2736     535.6683   1422.01416     665.2736     535.6683
   1421.99890     666.1271     533.2015   1421.99890     666.1271     533.2015
   1421.98364     665.8334     533.6153   1421.98364     665.8334     533.6153
   1421.96838     665.9357     532.4755   1421.96838     665.9357     532.4755
   1421.95312     664.1708     530.7382   1421.95312     664.1708     530.7382
   1421.93787     664.9393     530.1236   1421.93787     664.9393     530.1236
   1421.92261     663.8295     528.0740   1421.92261     663.8295     528.0740
   1421.90735     665.0489     527.4577   1421.90735     665.0489     527.4577
   1421.89209     665.1370     526.0299   1421.89209     665.1370     526.0299
   1421.87683     664.0659     524.9734   1421.87683     664.0659     524.9734
   1421.86157     664.2230     523.8096   1421.86157     664.2230     523.8096
   1421.84631     664.4924     522.2341   1421.84631     664.4924     522.2341
   1421.83105     663.3112     521.8493   1421.83105     663.3112     521.8493
   1421.81580     664.3388     520.9825   1421.81580     664.3388     520.9825
   1421.80054     664.3881     518.5850   1421.80054     664.3881     518.5850
   1421.78528     663.4146     517.7402   1421.78528     663.4146     517.7402
   1421.77002     663.0638     516.5014   1421.77002     663.0638     516.5014
   1421.75476     662.7720     515.1652   1421.75476     662.7720     515.1652
   1421.73950     663.3932     513.6176   1421.73950     663.3932     513.6176
   1421.72424     661.7086     513.9117   1421.72424     661.7086     513.9117
   1421.70898     662.2922     511.5250   1421.70898     662.2922     511.5250
   1421.69373     661.6594     510.1550   1421.69373     661.6594     510.1550
   1421.67847     661.0035     509.2739   1421.67847     661.0035     509.2739
   1421.66321     661.7548     508.5461   1421.66321     661.7548     508.5461
   1421.64795     660.3232     507.1384   1421.64795     660.3232     507.1384
   1421.63269     660.7192     506.1499   1421.63269     660.7192     506.1499
   1421.61743     661.8322     505.0144   1421.61743     661.8322     505.0144
   1421.60217     660.7341     503.2659   1421.60217     660.7341     503.2659
   1421.58691     661.2054     502.8490   1421.58691     661.2054     502.8490
   1421.57166     660.8390     501.6066   1421.57166     660.8390     501.6066
   1421.55640     660.2813     500.2243   1421.55640     660.2813     500.2243
   1421.54114     660.4852     499.0606   1421.54114     660.4852     499.0606
   1421.52588     659.4903     498.1261   1421.52588     659.4903     498.1261
   1421.51062     659.7637     496.2100   1421.51062     659.7637     496.2100
   1421.49536     659.3641     495.4540   1421.49536     659.3641     495.4540
   1421.48010     659.9225     493.9154   1421.48010     659.9225     493.9154
   1421.46484     659.1810     493.2419   1421.46484     659.1810     493.2419
   1421.44958     659.5619     492.3846   1421.44958     659.5619     492.3846
   1421.43433     658.1653     490.4889   1421.43433     658.1653     490.4889
   1421.41907     658.0093     489.3675   1421.41907     658.0093     489.3675
   1421.40381     659.1974     489.5449   1421.40381     659.1974     489.5449
   1421.38855     657.8938     488.4835   1421.38855     657.8938     488.4835
   1421.37329     657.9257     486.4533   1421.37329     657.9257     486.4533
   1421.35803     657.4164     484.8058   1421.35803     657.4164     484.8058
   1421.34277     657.5428     484.2365   1421.34277     657.5428     484.2365
   1421.32751     658.0444     482.6852   1421.32751     658.0444     482.6852
   1421.31226     657.4081     481.8630   1421.31226     657.4081     481.8630
   1421.29700     656.7430     481.8548   1421.29700     656.7430     481.8548
   1421.28174     656.4425     480.6181   1421.28174     656.4425     480.6181
   1421.26648     656.4416     479.0608   1421.26648     656.4416     479.0608
   1421.25122     654.9319     477.6567   1421.25122     654.9319     477.6567
   1421.23596     655.2566     476.8328   1421.23596     655.2566     476.8328
   1421.22070     656.1702     476.0288   1421.22070     656.1702     476.0288
   1421.20544     655.9667     474.5109   1421.20544     655.9667     474.5109
   1421.19019     654.7797     473.9312   1421.19019     654.7797     473.9312
   1421.17493     655.1413     472.6748   1421.17493     655.1413     472.6748
   1421.15967     654.3132     471.2506   1421.15967     654.3132     471.2506
   1421.14441     654.8574     470.2275   1421.14441     654.8574     470.2275
   1421.12915     653.9554     470.0594   1421.12915     653.9554     470.0594
   1421.11389     654.0558     468.4729   1421.11389     654.0558     468.4729
   1421.09863     653.6442     468.0840   1421.09863     653.6442     468.0840
   1421.08337     653.5238     466.2951   1421.08337     653.5238     466.2951
   1421.06812     652.6014     465.7903   1421.06812     652.6014     465.7903
   1421.05286     653.5781     464.6723   1421.05286     653.5781     464.6723
   1421.03760     653.7988     464.4022   1421.03760     653.7988     464.4022
   1421.02234     653.0698     462.8959   1421.02234     653.0698     462.8959
   1421.00708     652.1583     462.0475   1421.00708     652.1583     462.0475
   1420.99182     652.5543     460.8578   1420.99182     652.5543     460.8578
   1420.97656     652.1880     459.8900   1420.97656     652.1880     459.8900
   1420.96130     652.1780     458.9039   1420.96130     652.1780     458.9039
   1420.94604     651.7061     458.1984   1420.94604     651.7061     458.1984
   1420.93079     653.8906     457.0112   1420.93079     653.8906     457.0112
   1420.91553     650.5875     456.6344   1420.91553     650.5875     456.6344
   1420.90027     651.0907     454.6940   1420.90027     651.0907     454.6940
   1420.88501     651.2256     454.0591   1420.88501     651.2256     454.0591
   1420.86975     650.6432     453.9499   1420.86975     650.6432     453.9499
   1420.85449     651.5782     452.7796   1420.85449     651.5782     452.7796
   1420.83923     651.6608     451.3382   1420.83923     651.6608     451.3382
   1420.82397     651.4207     450.9655   1420.82397     651.4207     450.9655
   1420.80872     651.3882     450.2077   1420.80872     651.3882     450.2077
   1420.79346     651.1252     449.3953   1420.79346     651.1252     449.3953
   1420.77820     651.9018     448.9771   1420.77820     651.9018     448.9771
   1420.76294     650.1037     447.6083   1420.76294     650.1037     447.6083
   1420.74768     652.5212     448.1298   1420.74768     652.5212     448.1298
   1420.73242     651.9490     446.1852   1420.73242     651.9490     446.1852
   1420.71716     651.8009     445.6585   1420.71716     651.8009     445.6585
   1420.70190     651.4794     445.5609   1420.70190     651.4794     445.5609
   1420.68665     651.0040     444.6637   1420.68665     651.0040     444.6637
   1420.67139     650.8789     442.9503   1420.67139     650.8789     442.9503
   1420.65613     650.4747     442.4048   1420.65613     650.4747     442.4048
   1420.64087     649.4913     441.9704   1420.64087     649.4913     441.9704
   1420.62561     650.4579     441.0447   1420.62561     650.4579     441.0447
   1420.61035     650.0471     440.6294   1420.61035     650.0471     440.6294
   1420.59509     651.1859     439.7150   1420.59509     651.1859     439.7150
   1420.57983     650.6501     439.5605   1420.57983     650.6501     439.5605
   1420.56458     652.5865     439.9152   1420.56458     652.5865     439.9152
   1420.54932     653.5869     439.5504   1420.54932     653.5869     439.5504
   1420.53406     655.6639     439.9052   1420.53406     655.6639     439.9052
   1420.51880     656.4116     440.1736   1420.51880     656.4116     440.1736
   1420.50354     655.4949     439.1129   1420.50354     655.4949     439.1129
   1420.48828     654.1837     437.2202   1420.48828     654.1837     437.2202
   1420.47302     653.9097     436.0540   1420.47302     653.9097     436.0540
   1420.45776     653.1116     434.8863   1420.45776     653.1116     434.8863
   1420.44250     652.6137     434.6731   1420.44250     652.6137     434.6731
   1420.42725     652.0466     433.8950   1420.42725     652.0466     433.8950
   1420.41199     652.9218     433.4077   1420.41199     652.9218     433.4077
   1420.39673     652.2327     432.6262   1420.39673     652.2327     432.6262
   1420.38147     652.2435     432.2380   1420.38147     652.2435     432.2380
   1420.36621     653.0447     432.1420   1420.36621     653.0447     432.1420
   1420.35095     654.0140     431.4017   1420.35095     654.0140     431.4017
   1420.33569     656.7436     432.7790   1420.33569     656.7436     432.7790
   1420.32043     660.6871     433.3254   1420.32043     660.6871     433.3254
   1420.30518     666.3760     437.6368   1420.30518     666.3760     437.6368
   1420.28992     677.1625     443.0735   1420.28992     677.1625     443.0735
   1420.27466     696.5205     454.6364   1420.27466     696.5205     454.6364
   1420.25940     729.0618     474.8765   1420.25940     729.0618     474.8765
   1420.24414     803.3839     520.7841   1420.24414     803.3839     520.7841
   1420.22888     945.9132     609.8480   1420.22888     945.9132     609.8480
   1420.21362    1104.8831     709.2593   1420.21362    1104.8831     709.2593
   1420.19836    1229.8301     788.4979   1420.19836    1229.8301     788.4979
   1420.18311    1268.5657     813.7124   1420.18311    1268.5657     813.7124
   1420.16785    1302.8761     831.6373   1420.16785    1302.8761     831.6373
   1420.15259    1340.7666     854.5704   1420.15259    1340.7666     854.5704
   1420.13733    1584.7784    1005.2169   1420.13733    1584.7784    1005.2169
   1420.12207    1878.7389    1188.9001   1420.12207    1878.7389    1188.9001
   1420.10681    2041.1172    1286.4590   1420.10681    2041.1172    1286.4590
   1420.09155    1990.4358    1258.1887   1420.09155    1990.4358    1258.1887
   1420.07629    1698.7988    1071.4735   1420.07629    1698.7988    1071.4735
   1420.06104    1459.2024     922.3516   1420.06104    1459.2024     922.3516
   1420.04578    1461.1576     921.7208   1420.04578    1461.1576     921.7208
   1420.03052    1512.7643     953.0386   1420.03052    1512.7643     953.0386
   1420.01526    1707.0022    1071.7717   1420.01526    1707.0022    1071.7717
   1420.00000    1922.4584    1207.0183   1420.00000    1922.4584    1207.0183
   1419.98474    2137.9150    1342.2651   1419.98474    2137.9150    1342.2651
   1419.96948    2141.3816    1339.2583   1419.96948    2141.3816    1339.2583
   1419.95422    1740.8337    1088.6008   1419.95422    1740.8337    1088.6008
   1419.93896    1285.5994     807.1705   1419.93896    1285.5994     807.1705
   1419.92371    1013.3633     637.6769   1419.92371    1013.3633     637.6769
   1419.90845     889.5707     560.5551   1419.90845     889.5707     560.5551
   1419.89319     822.0343     518.2255   1419.89319     822.0343     518.2255
   1419.87793     768.3041     485.1083   1419.87793     768.3041     485.1083
   1419.86267     734.1102     462.8562   1419.86267     734.1102     462.8562
   1419.84741     710.5306     449.5560   1419.84741     710.5306     449.5560
   1419.83215     696.0875     439.8500   1419.83215     696.0875     439.8500
   1419.81689     685.7991     433.4755   1419.81689     685.7991     433.4755
   1419.80164     677.3734     427.4750   1419.80164     677.3734     427.4750
   1419.78638     669.7831     421.8013   1419.78638     669.7831     421.8013
   1419.77112     663.7313     417.7253   1419.77112     663.7313     417.7253
   1419.75586     660.3423     415.2127   1419.75586     660.3423     415.2127
   1419.74060     654.0502     411.6165   1419.74060     654.0502     411.6165
   1419.72534     651.7920     409.3688   1419.72534     651.7920     409.3688
   1419.71008     649.9364     407.8117   1419.71008     649.9364     407.8117
   1419.69482     647.9233     407.0201   1419.69482     647.9233     407.0201
   1419.67957     647.3314     405.7453   1419.67957     647.3314     405.7453
   1419.66431     647.0635     405.0934   1419.66431     647.0635     405.0934
   1419.64905     647.8093     404.7300   1419.64905     647.8093     404.7300
   1419.63379     646.7870     404.0442   1419.63379     646.7870     404.0442
   1419.61853     648.4544     404.0898   1419.61853     648.4544     404.0898
   1419.60327     647.1536     404.1007   1419.60327     647.1536     404.1007
   1419.58801     647.7203     403.5645   1419.58801     647.7203     403.5645
   1419.57275     647.5943     403.4093   1419.57275     647.5943     403.4093
   1419.55750     647.3407     403.1561   1419.55750     647.3407     403.1561
   1419.54224     647.8570     402.5280   1419.54224     647.8570     402.5280
   1419.52698     649.1254     403.6433   1419.52698     649.1254     403.6433
   1419.51172     648.1192     401.7201   1419.51172     648.1192     401.7201
   1419.49646     648.8180     402.5501   1419.49646     648.8180     402.5501
   1419.48120     648.7753     402.4451   1419.48120     648.7753     402.4451
   1419.46594     649.9279     402.6290   1419.46594     649.9279     402.6290
   1419.45068     649.6069     401.6773   1419.45068     649.6069     401.6773
   1419.43542     650.5025     401.6149   1419.43542     650.5025     401.6149
   1419.42017     651.0190     401.3309   1419.42017     651.0190     401.3309
   1419.40491     650.6815     401.3202   1419.40491     650.6815     401.3202
   1419.38965     650.8740     401.8468   1419.38965     650.8740     401.8468
   1419.37439     651.5480     401.9919   1419.37439     651.5480     401.9919
   1419.35913     651.8559     400.9559   1419.35913     651.8559     400.9559
   1419.34387     652.2833     400.7108   1419.34387     652.2833     400.7108
   1419.32861     652.8780     401.6203   1419.32861     652.8780     401.6203
   1419.31335     653.3027     401.0793   1419.31335     653.3027     401.0793
   1419.29810     653.0543     400.9177   1419.29810     653.0543     400.9177
   1419.28284     653.4440     401.3080   1419.28284     653.4440     401.3080
   1419.26758     656.3542     401.1204   1419.26758     656.3542     401.1204
   1419.25232     654.7498     401.0156   1419.25232     654.7498     401.0156
   1419.23706     655.4127     401.6920   1419.23706     655.4127     401.6920
   1419.22180     656.4486     401.1229   1419.22180     656.4486     401.1229
   1419.20654     656.0330     400.9355   1419.20654     656.0330     400.9355
   1419.19128     657.6765     400.8259   1419.19128     657.6765     400.8259
   1419.17603     657.4567     401.3610   1419.17603     657.4567     401.3610
   1419.16077     658.3589     401.6451   1419.16077     658.3589     401.6451
   1419.14551     658.5309     400.7653   1419.14551     658.5309     400.7653
   1419.13025     658.6627     401.7704   1419.13025     658.6627     401.7704
   1419.11499     659.7933     401.3937   1419.11499     659.7933     401.3937
   1419.09973     661.2319     401.8771   1419.09973     661.2319     401.8771
   1419.08447     662.1420     401.8184   1419.08447     662.1420     401.8184
   1419.06921     661.1911     402.3444   1419.06921     661.1911     402.3444
   1419.05396     661.0369     402.5865   1419.05396     661.0369     402.5865
   1419.03870     663.6223     402.6706   1419.03870     663.6223     402.6706
   1419.02344     663.0903     402.5307   1419.02344     663.0903     402.5307
   1419.00818     665.0964     402.2377   1419.00818     665.0964     402.2377
   1418.99292     664.2432     402.9453   1418.99292     664.2432     402.9453
   1418.97766     666.4322     402.9624   1418.97766     666.4322     402.9624
   1418.96240     666.0488     403.8634   1418.96240     666.0488     403.8634
   1418.94714     666.7455     403.5557   1418.94714     666.7455     403.5557
   1418.93188     667.5085     403.6706   1418.93188     667.5085     403.6706
   1418.91663     668.3157     403.9798   1418.91663     668.3157     403.9798
   1418.90137     668.5383     404.1221   1418.90137     668.5383     404.1221
   1418.88611     669.2891     403.7894   1418.88611     669.2891     403.7894
   1418.87085     670.0804     404.7427   1418.87085     670.0804     404.7427
   1418.85559     670.9652     404.6819   1418.85559     670.9652     404.6819
   1418.84033     671.1176     405.5909   1418.84033     671.1176     405.5909
   1418.82507     671.2469     404.6733   1418.82507     671.2469     404.6733
   1418.80981     672.2020     405.3538   1418.80981     672.2020     405.3538
   1418.79456     673.1336     405.9809   1418.79456     673.1336     405.9809
   1418.77930     674.8021     406.0638   1418.77930     674.8021     406.0638
   1418.76404     674.9694     405.9640   1418.76404     674.9694     405.9640
   1418.74878     676.6781     406.4908   1418.74878     676.6781     406.4908
   1418.73352     676.6942     406.9903   1418.73352     676.6942     406.9903
   1418.71826     676.9024     407.6071   1418.71826     676.9024     407.6071
   1418.70300     677.6155     407.6415   1418.70300     677.6155     407.6415
   1418.68774     678.8525     408.0794   1418.68774     678.8525     408.0794
   1418.67249     679.6109     409.0858   1418.67249     679.6109     409.0858
   1418.65723     680.7201     408.8010   1418.65723     680.7201     408.8010
   1418.64197     680.7465     408.9455   1418.64197     680.7465     408.9455
   1418.62671     682.3106     409.1729   1418.62671     682.3106     409.1729
   1418.61145     682.1859     409.9559   1418.61145     682.1859     409.9559
   1418.59619     684.3423     410.1289   1418.59619     684.3423     410.1289
   1418.58093     684.7151     410.9814   1418.58093     684.7151     410.9814
   1418.56567     685.7025     411.5230   1418.56567     685.7025     411.5230
   1418.55042     686.0297     411.4224   1418.55042     686.0297     411.4224
   1418.53516     687.4826     411.9490   1418.53516     687.4826     411.9490
   1418.51990     688.4636     412.5250   1418.51990     688.4636     412.5250
   1418.50464     689.2102     413.1500   1418.50464     689.2102     413.1500
   1418.48938     689.8206     412.8398   1418.48938     689.8206     412.8398
   1418.47412     691.8577     413.3084   1418.47412     691.8577     413.3084
   1418.45886     691.6849     413.3822   1418.45886     691.6849     413.3822
   1418.44360     693.4803     414.7194   1418.44360     693.4803     414.7194
   1418.42834     692.3531     414.8545   1418.42834     692.3531     414.8545
   1418.41309     694.1185     415.7236   1418.41309     694.1185     415.7236
   1418.39783     695.8550     415.8263   1418.39783     695.8550     415.8263
   1418.38257     697.3495     415.8567   1418.38257     697.3495     415.8567
   1418.36731     696.9373     416.7080   1418.36731     696.9373     416.7080
   1418.35205     696.3646     417.1733   1418.35205     696.3646     417.1733
   1418.33679     698.9340     418.1486   1418.33679     698.9340     418.1486
   1418.32153     700.4058     418.3786   1418.32153     700.4058     418.3786
   1418.30627     701.4199     419.0481   1418.30627     701.4199     419.0481
   1418.29102     702.6580     419.3436   1418.29102     702.6580     419.3436
   1418.27576     702.7501     420.2814   1418.27576     702.7501     420.2814
   1418.26050     704.8347     420.6633   1418.26050     704.8347     420.6633
   1418.24524     705.1163     421.1582   1418.24524     705.1163     421.1582
   1418.22998     705.1891     421.3963   1418.22998     705.1891     421.3963
   1418.21472     707.5516     422.2353   1418.21472     707.5516     422.2353
   1418.19946     707.2913     422.6569   1418.19946     707.2913     422.6569
   1418.18420     709.1873     423.3835   1418.18420     709.1873     423.3835
   1418.16895     709.3464     423.8837   1418.16895     709.3464     423.8837
   1418.15369     712.3575     424.6531   1418.15369     712.3575     424.6531
   1418.13843     712.2003     424.7718   1418.13843     712.2003     424.7718
   1418.12317     712.6458     424.9665   1418.12317     712.6458     424.9665
   1418.10791     714.9103     425.8608   1418.10791     714.9103     425.8608
   1418.09265     716.0231     426.5167   1418.09265     716.0231     426.5167
   1418.07739     716.6696     426.8044   1418.07739     716.6696     426.8044
   1418.06213     717.2692     426.8251   1418.06213     717.2692     426.8251
   1418.04688     718.0215     428.2509   1418.04688     718.0215     428.2509
   1418.03162     718.8297     429.0135   1418.03162     718.8297     429.0135
   1418.01636     722.0859     429.1133   1418.01636     722.0859     429.1133
   1418.00110     721.9937     430.1483   1418.00110     721.9937     430.1483
   1417.98584     722.1486     430.7333   1417.98584     722.1486     430.7333
   1417.97058     722.6966     431.5558   1417.97058     722.6966     431.5558
   1417.95532     724.7239     431.5190   1417.95532     724.7239     431.5190
   1417.94006     726.2029     433.3644   1417.94006     726.2029     433.3644
   1417.92480     726.0847     433.3198   1417.92480     726.0847     433.3198
   1417.90955     728.0994     433.7878   1417.90955     728.0994     433.7878
   1417.89429     729.5954     434.6481   1417.89429     729.5954     434.6481
   1417.87903     730.3320     435.3343   1417.87903     730.3320     435.3343
   1417.86377     731.7983     436.4584   1417.86377     731.7983     436.4584
   1417.84851     733.3073     436.7899   1417.84851     733.3073     436.7899
   1417.83325     733.9469     437.0731   1417.83325     733.9469     437.0731
   1417.81799     734.6174     437.9277   1417.81799     734.6174     437.9277
   1417.80273     736.5400     438.1750   1417.80273     736.5400     438.1750
   1417.78748     736.8078     439.6139   1417.78748     736.8078     439.6139
   1417.77222     738.3535     440.2824   1417.77222     738.3535     440.2824
   1417.75696     739.1801     440.6742   1417.75696     739.1801     440.6742
   1417.74170     739.7416     441.3060   1417.74170     739.7416     441.3060
   1417.72644     741.4285     441.4045   1417.72644     741.4285     441.4045
   1417.71118     742.6955     442.3587   1417.71118     742.6955     442.3587
   1417.69592     742.8132     443.0073   1417.69592     742.8132     443.0073
   1417.68066     743.9945     443.1498   1417.68066     743.9945     443.1498
   1417.66541     744.3493     444.2522   1417.66541     744.3493     444.2522
   1417.65015     746.3375     444.7487   1417.65015     746.3375     444.7487
   1417.63489     746.1737     445.7948   1417.63489     746.1737     445.7948
   1417.61963     748.0333     446.3503   1417.61963     748.0333     446.3503
   1417.60437     749.0345     447.0240   1417.60437     749.0345     447.0240
   1417.58911     750.3927     447.0228   1417.58911     750.3927     447.0228
   1417.57385     752.5602     447.4444   1417.57385     752.5602     447.4444
   1417.55859     751.8828     449.2041   1417.55859     751.8828     449.2041
   1417.54333     752.8047     449.5772   1417.54333     752.8047     449.5772
   1417.52808     753.3002     450.6498   1417.52808     753.3002     450.6498
   1417.51282     755.6544     450.7358   1417.51282     755.6544     450.7358
   1417.49756     756.5683     451.0725   1417.49756     756.5683     451.0725
   1417.48230     756.9091     451.5546   1417.48230     756.9091     451.5546
   1417.46704     757.5647     452.7776   1417.46704     757.5647     452.7776
   1417.45178     759.0031     453.7582   1417.45178     759.0031     453.7582
   1417.43652     760.7872     454.3232   1417.43652     760.7872     454.3232
   1417.42126     761.6213     455.0160   1417.42126     761.6213     455.0160
   1417.40601     762.5264     455.2779   1417.40601     762.5264     455.2779
   1417.39075     762.8390     456.1529   1417.39075     762.8390     456.1529
   1417.37549     765.7868     457.8322   1417.37549     765.7868     457.8322
   1417.36023     765.8696     457.4063   1417.36023     765.8696     457.4063
   1417.34497     766.0948     457.7157   1417.34497     766.0948     457.7157
   1417.32971     767.2457     458.4471   1417.32971     767.2457     458.4471
   1417.31445     768.8626     460.1947   1417.31445     768.8626     460.1947
   1417.29919     768.2920     460.4611   1417.29919     768.2920     460.4611
   1417.28394     768.8079     461.0738   1417.28394     768.8079     461.0738
   1417.26868     770.3316     461.5996   1417.26868     770.3316     461.5996
   1417.25342     771.5841     462.5112   1417.25342     771.5841     462.5112
   1417.23816     772.3837     462.7427   1417.23816     772.3837     462.7427
   1417.22290     775.8076     463.9570   1417.22290     775.8076     463.9570
   1417.20764     773.0575     464.0575   1417.20764     773.0575     464.0575
   1417.19238     774.0212     464.6218   1417.19238     774.0212     464.6218
   1417.17712     775.6758     464.8279   1417.17712     775.6758     464.8279
   1417.16187     776.3072     465.1884   1417.16187     776.3072     465.1884
   1417.14661     776.7861     465.8137   1417.14661     776.7861     465.8137
   1417.13135     778.1596     466.8159   1417.13135     778.1596     466.8159
   1417.11609     778.3880     467.1974   1417.11609     778.3880     467.1974
   1417.10083     779.9041     467.7796   1417.10083     779.9041     467.7796
   1417.08557     779.2524     469.0842   1417.08557     779.2524     469.0842
   1417.07031     780.3575     469.4457   1417.07031     780.3575     469.4457
   1417.05505     781.2901     469.6416   1417.05505     781.2901     469.6416
   1417.03979     781.6788     470.0832   1417.03979     781.6788     470.0832
   1417.02454     782.2013     470.4953   1417.02454     782.2013     470.4953
   1417.00928     783.1972     470.6952   1417.00928     783.1972     470.6952
   1416.99402     784.0283     471.7291   1416.99402     784.0283     471.7291
   1416.97876     785.0547     472.0211   1416.97876     785.0547     472.0211
   1416.96350     784.8765     473.0266   1416.96350     784.8765     473.0266
   1416.94824     785.8125     473.0756   1416.94824     785.8125     473.0756
   1416.93298     786.0231     472.7012   1416.93298     786.0231     472.7012
   1416.91772     788.2025     474.1519   1416.91772     788.2025     474.1519
   1416.90247     787.2419     474.4052   1416.90247     787.2419     474.4052
   1416.88721     786.8610     475.1161   1416.88721     786.8610     475.1161
   1416.87195     789.8691     475.6574   1416.87195     789.8691     475.6574
   1416.85669     788.8008     475.4664   1416.85669     788.8008     475.4664
   1416.84143     789.1685     475.9420   1416.84143     789.1685     475.9420
   1416.82617     790.1920     477.3472   1416.82617     790.1920     477.3472
   1416.81091     789.7479     477.2859   1416.81091     789.7479     477.2859
   1416.79565     790.3402     477.6165   1416.79565     790.3402     477.6165
   1416.78040     789.9919     477.8335   1416.78040     789.9919     477.8335
   1416.76514     791.7272     478.4742   1416.76514     791.7272     478.4742
   1416.74988     792.2969     478.0154   1416.74988     792.2969     478.0154
   1416.73462     791.9420     479.0673   1416.73462     791.9420     479.0673
   1416.71936     791.7193     478.6128   1416.71936     791.7193     478.6128
   1416.70410     793.2603     479.2334   1416.70410     793.2603     479.2334
   1416.68884     792.9295     479.4048   1416.68884     792.9295     479.4048
   1416.67358     793.4177     480.5436   1416.67358     793.4177     480.5436
   1416.65833     793.1861     480.2999   1416.65833     793.1861     480.2999
   1416.64307     793.0298     479.9784   1416.64307     793.0298     479.9784
   1416.62781     793.5175     480.9746   1416.62781     793.5175     480.9746
   1416.61255     793.4695     480.6655   1416.61255     793.4695     480.6655
   1416.59729     794.2615     481.6036   1416.59729     794.2615     481.6036
   1416.58203     795.2126     481.7002   1416.58203     795.2126     481.7002
   1416.56677     795.4531     481.2187   1416.56677     795.4531     481.2187
   1416.55151     794.6404     480.8197   1416.55151     794.6404     480.8197
   1416.53625     794.1353     481.2655   1416.53625     794.1353     481.2655
   1416.52100     793.9214     482.2893   1416.52100     793.9214     482.2893
   1416.50574     796.1225     481.6395   1416.50574     796.1225     481.6395
   1416.49048     795.8765     482.6443   1416.49048     795.8765     482.6443
   1416.47522     796.3784     482.2036   1416.47522     796.3784     482.2036
   1416.45996     796.1275     482.3201   1416.45996     796.1275     482.3201
   1416.44470     794.6484     482.1899   1416.44470     794.6484     482.1899
   1416.42944     796.3516     482.9365   1416.42944     796.3516     482.9365
   1416.41418     795.4476     483.0181   1416.41418     795.4476     483.0181
   1416.39893     794.3386     483.3228   1416.39893     794.3386     483.3228
   1416.38367     794.8836     483.0984   1416.38367     794.8836     483.0984
   1416.36841     795.1398     483.2987   1416.36841     795.1398     483.2987
   1416.35315     794.2711     483.4248   1416.35315     794.2711     483.4248
   1416.33789     794.0855     482.8927   1416.33789     794.0855     482.8927
   1416.32263     794.5114     482.8542   1416.32263     794.5114     482.8542
   1416.30737     794.4301     482.6916   1416.30737     794.4301     482.6916
   1416.29211     794.0181     482.5488   1416.29211     794.0181     482.5488
   1416.27686     794.1501     483.3745   1416.27686     794.1501     483.3745
   1416.26160     792.5699     482.5530   1416.26160     792.5699     482.5530
   1416.24634     792.8778     483.3988   1416.24634     792.8778     483.3988
   1416.23108     793.1355     482.7101   1416.23108     793.1355     482.7101
   1416.21582     793.1634     482.8285   1416.21582     793.1634     482.8285
   1416.20056     792.0360     483.0557   1416.20056     792.0360     483.0557
   1416.18530     792.1908     483.2321   1416.18530     792.1908     483.2321
   1416.17004     792.0839     482.5959   1416.17004     792.0839     482.5959
   1416.15479     791.1425     483.0901   1416.15479     791.1425     483.0901
   1416.13953     791.5725     482.6201   1416.13953     791.5725     482.6201
   1416.12427     791.4987     482.0117   1416.12427     791.4987     482.0117
   1416.10901     791.4110     482.4639   1416.10901     791.4110     482.4639
   1416.09375     788.9100     481.8154   1416.09375     788.9100     481.8154
   1416.07849     789.7202     482.3055   1416.07849     789.7202     482.3055
   1416.06323     787.8373     481.5660   1416.06323     787.8373     481.5660
   1416.04797     788.8171     481.9645   1416.04797     788.8171     481.9645
   1416.03271     788.3226     481.7924   1416.03271     788.3226     481.7924
   1416.01746     786.4449     481.9725   1416.01746     786.4449     481.9725
   1416.00220     786.5786     481.0714   1416.00220     786.5786     481.0714
   1415.98694     787.7814     481.9693   1415.98694     787.7814     481.9693
   1415.97168     786.7662     481.3463   1415.97168     786.7662     481.3463
   1415.95642     785.2382     481.3945   1415.95642     785.2382     481.3945
   1415.94116     783.8234     480.4000   1415.94116     783.8234     480.4000
   1415.92590     784.8296     480.6275   1415.92590     784.8296     480.6275
   1415.91064     783.5630     480.9078   1415.91064     783.5630     480.9078
   1415.89539     783.2531     481.0541   1415.89539     783.2531     481.0541
   1415.88013     783.9271     480.0861   1415.88013     783.9271     480.0861
   1415.86487     782.6290     480.5667   1415.86487     782.6290     480.5667
   1415.84961     781.7922     478.8808   1415.84961     781.7922     478.8808
   1415.83435     780.8994     479.6369   1415.83435     780.8994     479.6369
   1415.81909     779.6851     479.5585   1415.81909     779.6851     479.5585
   1415.80383     780.8360     478.8395   1415.80383     780.8360     478.8395
   1415.78857     779.7324     479.0314   1415.78857     779.7324     479.0314
   1415.77332     777.6913     478.6250   1415.77332     777.6913     478.6250
   1415.75806     776.3812     479.0516   1415.75806     776.3812     479.0516
   1415.74280     776.5721     478.8553   1415.74280     776.5721     478.8553
   1415.72754     775.7845     478.5216   1415.72754     775.7845     478.5216
   1415.71228     774.4255     477.9265   1415.71228     774.4255     477.9265
   1415.69702     773.8316     477.7158   1415.69702     773.8316     477.7158
   1415.68176     773.5148     477.2587   1415.68176     773.5148     477.2587
   1415.66650     772.7482     476.8183   1415.66650     772.7482     476.8183
   1415.65125     772.0267     476.9414   1415.65125     772.0267     476.9414
   1415.63599     770.3812     476.7553   1415.63599     770.3812     476.7553
   1415.62073     769.4598     476.4009   1415.62073     769.4598     476.4009
   1415.60547     768.5677     474.8798   1415.60547     768.5677     474.8798
   1415.59021     767.3188     475.5262   1415.59021     767.3188     475.5262
   1415.57495     767.5131     475.4840   1415.57495     767.5131     475.4840
   1415.55969     765.5999     475.3518   1415.55969     765.5999     475.3518
   1415.54443     764.6711     474.2209   1415.54443     764.6711     474.2209
   1415.52917     762.8579     474.5428   1415.52917     762.8579     474.5428
   1415.51392     762.9920     474.4019   1415.51392     762.9920     474.4019
   1415.49866     761.9755     474.5845   1415.49866     761.9755     474.5845
   1415.48340     760.8010     473.3542   1415.48340     760.8010     473.3542
   1415.46814     759.9829     473.5508   1415.46814     759.9829     473.5508
   1415.45288     761.2457     473.7085   1415.45288     761.2457     473.7085
   1415.43762     757.8820     472.5833   1415.43762     757.8820     472.5833
   1415.42236     756.6224     472.2405   1415.42236     756.6224     472.2405
   1415.40710     755.5933     471.3725   1415.40710     755.5933     471.3725
   1415.39185     754.7139     471.5527   1415.39185     754.7139     471.5527
   1415.37659     753.8820     470.8572   1415.37659     753.8820     470.8572
   1415.36133     753.1984     470.3563   1415.36133     753.1984     470.3563
   1415.34607     750.9182     470.5352   1415.34607     750.9182     470.5352
   1415.33081     750.5178     469.9067   1415.33081     750.5178     469.9067
   1415.31555     747.9159     469.4022   1415.31555     747.9159     469.4022
   1415.30029     747.3464     468.7946   1415.30029     747.3464     468.7946
   1415.28503     745.2151     467.9502   1415.28503     745.2151     467.9502
   1415.26978     744.7839     467.5413   1415.26978     744.7839     467.5413
   1415.25452     744.0914     467.7296   1415.25452     744.0914     467.7296
   1415.23926     742.6385     467.1920   1415.23926     742.6385     467.1920
   1415.22400     741.3174     466.7395   1415.22400     741.3174     466.7395
   1415.20874     740.5128     466.4770   1415.20874     740.5128     466.4770
   1415.19348     737.9913     466.0119   1415.19348     737.9913     466.0119
   1415.17822     736.8468     465.3121   1415.17822     736.8468     465.3121
   1415.16296     736.2196     464.4550   1415.16296     736.2196     464.4550
   1415.14771     734.8201     464.0608   1415.14771     734.8201     464.0608
   1415.13245     732.4938     463.6332   1415.13245     732.4938     463.6332
   1415.11719     729.0815     463.4874   1415.11719     729.0815     463.4874
   1415.10193     730.1889     461.9875   1415.10193     730.1889     461.9875
   1415.08667     728.4805     462.1802   1415.08667     728.4805     462.1802
   1415.07141     726.9160     460.8999   1415.07141     726.9160     460.8999
   1415.05615     724.7058     460.7911   1415.05615     724.7058     460.7911
   1415.04089     723.4006     460.4178   1415.04089     723.4006     460.4178
   1415.02563     722.7382     459.6397   1415.02563     722.7382     459.6397
   1415.01038     720.3193     458.9726   1415.01038     720.3193     458.9726
   1414.99512     718.5029     458.2726   1414.99512     718.5029     458.2726
   1414.97986     716.6032     457.5017   1414.97986     716.6032     457.5017
   1414.96460     715.6389     456.7809   1414.96460     715.6389     456.7809
   1414.94934     713.9371     456.3110   1414.94934     713.9371     456.3110
   1414.93408     712.9141     455.7836   1414.93408     712.9141     455.7836
   1414.91882     709.6035     455.1306   1414.91882     709.6035     455.1306
   1414.90356     708.4860     453.8376   1414.90356     708.4860     453.8376
   1414.88831     706.4296     453.6492   1414.88831     706.4296     453.6492
   1414.87305     705.2621     453.5073   1414.87305     705.2621     453.5073
   1414.85779     702.9136     451.6163   1414.85779     702.9136     451.6163
   1414.84253     702.0205     451.6872   1414.84253     702.0205     451.6872
   1414.82727     699.2331     450.6610   1414.82727     699.2331     450.6610
   1414.81201     698.0339     449.6959   1414.81201     698.0339     449.6959
   1414.79675     693.9961     448.3570   1414.79675     693.9961     448.3570
   1414.78149     693.6851     448.6493   1414.78149     693.6851     448.6493
   1414.76624     692.1805     447.9394   1414.76624     692.1805     447.9394
   1414.75098     690.6213     445.6735   1414.75098     690.6213     445.6735
   1414.73572     687.7919     445.1043   1414.73572     687.7919     445.1043
   1414.72046     686.5403     444.4776   1414.72046     686.5403     444.4776
   1414.70520     684.9111     443.3058   1414.70520     684.9111     443.3058
   1414.68994     682.0459     442.6441   1414.68994     682.0459     442.6441
   1414.67468     679.2949     442.1024   1414.67468     679.2949     442.1024
   1414.65942     677.4380     440.5028   1414.65942     677.4380     440.5028
   1414.64417     675.8970     439.8582   1414.64417     675.8970     439.8582
   1414.62891     673.9711     439.1778   1414.62891     673.9711     439.1778
   1414.61365     671.8698     438.1017   1414.61365     671.8698     438.1017
   1414.59839     669.8294     437.8254   1414.59839     669.8294     437.8254
   1414.58313     666.5098     436.5105   1414.58313     666.5098     436.5105
   1414.56787     665.4232     434.6893   1414.56787     665.4232     434.6893
   1414.55261     662.1495     433.5515   1414.55261     662.1495     433.5515
   1414.53735     660.8594     432.2448   1414.53735     660.8594     432.2448
   1414.52209     657.8509     431.7599   1414.52209     657.8509     431.7599
   1414.50684     654.8694     430.4368   1414.50684     654.8694     430.4368
   1414.49158     653.4271     429.5262   1414.49158     653.4271     429.5262
   1414.47632     651.4896     428.4239   1414.47632     651.4896     428.4239
   1414.46106     648.9314     427.1115   1414.46106     648.9314     427.1115
   1414.44580     647.3767     425.9445   1414.44580     647.3767     425.9445
   1414.43054     643.6449     424.7278   1414.43054     643.6449     424.7278
   1414.41528     640.9957     423.5815   1414.41528     640.9957     423.5815
   1414.40002     639.7209     422.6909   1414.40002     639.7209     422.6909
   1414.38477     635.4888     421.3270   1414.38477     635.4888     421.3270
   1414.36951     634.6379     420.1628   1414.36951     634.6379     420.1628
   1414.35425     632.2860     419.1244   1414.35425     632.2860     419.1244
   1414.33899     628.9862     417.6044   1414.33899     628.9862     417.6044
   1414.32373     627.0169     416.6098   1414.32373     627.0169     416.6098
   1414.30847     624.6440     415.0176   1414.30847     624.6440     415.0176
   1414.29321     620.8787     414.2388   1414.29321     620.8787     414.2388
   1414.27795     618.3375     412.6414   1414.27795     618.3375     412.6414
   1414.26270     615.9330     410.7607   1414.26270     615.9330     410.7607
   1414.24744     614.0572     409.9487   1414.24744     614.0572     409.9487
   1414.23218     611.5653     408.9136   1414.23218     611.5653     408.9136
   1414.21692     608.4939     407.1721   1414.21692     608.4939     407.1721
   1414.20166     605.8674     406.0093   1414.20166     605.8674     406.0093
   1414.18640     602.0626     404.6683   1414.18640     602.0626     404.6683
   1414.17114     600.6052     403.2811   1414.17114     600.6052     403.2811
   1414.15588     597.4219     401.9381   1414.15588     597.4219     401.9381
   1414.14062     594.9059     400.0775   1414.14062     594.9059     400.0775
   1414.12537     592.4781     398.7753   1414.12537     592.4781     398.7753
   1414.11011     589.9891     397.7350   1414.11011     589.9891     397.7350
   1414.09485     587.0926     395.5789   1414.09485     587.0926     395.5789
   1414.07959     583.4232     394.8934   1414.07959     583.4232     394.8934
   1414.06433     581.0764     393.0429   1414.06433     581.0764     393.0429
   1414.04907     578.7516     391.2098   1414.04907     578.7516     391.2098
   1414.03381     575.6364     390.5291   1414.03381     575.6364     390.5291
   1414.01855     572.2800     388.9787   1414.01855     572.2800     388.9787
   1414.00330     593.7732     394.5195   1414.00330     593.7732     394.5195
   1413.98804     568.7956     386.5036   1413.98804     568.7956     386.5036
   1413.97278     565.4792     383.9994   1413.97278     565.4792     383.9994
   1413.95752     561.0445     383.4411   1413.95752     561.0445     383.4411
   1413.94226     557.9933     380.8938   1413.94226     557.9933     380.8938
   1413.92700     555.2436     379.0016   1413.92700     555.2436     379.0016
   1413.91174     553.4621     377.7450   1413.91174     553.4621     377.7450
   1413.89648     549.2490     375.9804   1413.89648     549.2490     375.9804
   1413.88123     547.1276     374.7910   1413.88123     547.1276     374.7910
   1413.86597     543.7546     372.9645   1413.86597     543.7546     372.9645
   1413.85071     540.9997     371.6654   1413.85071     540.9997     371.6654
   1413.83545     537.1376     369.6687   1413.83545     537.1376     369.6687
   1413.82019     535.6819     368.2400   1413.82019     535.6819     368.2400
   1413.80493     532.5457     367.1290   1413.80493     532.5457     367.1290
   1413.78967     528.6760     365.6949   1413.78967     528.6760     365.6949
   1413.77441     527.1010     363.9171   1413.77441     527.1010     363.9171
   1413.75916     523.5407     361.9675   1413.75916     523.5407     361.9675
   1413.74390     521.3632     360.2793   1413.74390     521.3632     360.2793
   1413.72864     517.4271     358.5988   1413.72864     517.4271     358.5988
   1413.71338     514.6630     357.0627   1413.71338     514.6630     357.0627
   1413.69812     511.7337     355.3699   1413.69812     511.7337     355.3699
   1413.68286     509.1827     353.7946   1413.68286     509.1827     353.7946
   1413.66760     505.8586     352.2000   1413.66760     505.8586     352.2000
   1413.65234     503.9584     350.8905   1413.65234     503.9584     350.8905
   1413.63708     499.5224     349.3863   1413.63708     499.5224     349.3863
   1413.62183     497.9331     347.1021   1413.62183     497.9331     347.1021
   1413.60657     494.2087     345.4633   1413.60657     494.2087     345.4633
   1413.59131     491.4179     344.4077   1413.59131     491.4179     344.4077
   1413.57605     488.6412     342.8812   1413.57605     488.6412     342.8812
   1413.56079     485.7798     340.9452   1413.56079     485.7798     340.9452
   1413.54553     482.4221     339.4727   1413.54553     482.4221     339.4727
   1413.53027     480.5612     337.7009   1413.53027     480.5612     337.7009
   1413.51501     477.6596     336.1364   1413.51501     477.6596     336.1364
   1413.49976     474.5806     334.2828   1413.49976     474.5806     334.2828
   1413.48450     472.1018     332.5540   1413.48450     472.1018     332.5540
   1413.46924     468.2161     331.0119   1413.46924     468.2161     331.0119
   1413.45398     465.8730     329.7730   1413.45398     465.8730     329.7730
   1413.43872     463.0656     327.8010   1413.43872     463.0656     327.8010
   1413.42346     460.0976     326.5557   1413.42346     460.0976     326.5557
   1413.40820     457.7456     324.7940   1413.40820     457.7456     324.7940
   1413.39294     454.8785     323.4024   1413.39294     454.8785     323.4024
   1413.37769     451.9901     321.5558   1413.37769     451.9901     321.5558
   1413.36243     449.7299     320.5144   1413.36243     449.7299     320.5144
   1413.34717     446.7081     318.2835   1413.34717     446.7081     318.2835
   1413.33191     444.1250     316.8860   1413.33191     444.1250     316.8860
   1413.31665     441.6928     315.0824   1413.31665     441.6928     315.0824
   1413.30139     439.0435     313.8560   1413.30139     439.0435     313.8560
   1413.28613     436.8229     311.7449   1413.28613     436.8229     311.7449
   1413.27087     434.0366     310.6159   1413.27087     434.0366     310.6159
   1413.25562     431.7657     309.4024   1413.25562     431.7657     309.4024
   1413.24036     428.8653     307.8361   1413.24036     428.8653     307.8361
   1413.22510     426.7950     306.4760   1413.22510     426.7950     306.4760
   1413.20984     423.7803     304.9354   1413.20984     423.7803     304.9354
   1413.19458     422.0678     303.5276   1413.19458     422.0678     303.5276
   1413.17932     418.8206     301.1057   1413.17932     418.8206     301.1057
   1413.16406     416.8055     300.0513   1413.16406     416.8055     300.0513
   1413.14880     414.8674     299.0739   1413.14880     414.8674     299.0739
   1413.13354     411.9669     297.4780   1413.13354     411.9669     297.4780
   1413.11829     410.0503     296.3637   1413.11829     410.0503     296.3637
   1413.10303     407.6591     294.7479   1413.10303     407.6591     294.7479
   1413.08777     405.5220     293.7288   1413.08777     405.5220     293.7288
   1413.07251     403.6243     292.0044   1413.07251     403.6243     292.0044
   1413.05725     401.2491     291.2258   1413.05725     401.2491     291.2258
   1413.04199     398.4768     289.8099   1413.04199     398.4768     289.8099
   1413.02673     397.6449     288.3872   1413.02673     397.6449     288.3872
   1413.01147     394.7544     286.9170   1413.01147     394.7544     286.9170
   1412.99622     393.0891     285.8773   1412.99622     393.0891     285.8773
   1412.98096     390.2065     284.3842   1412.98096     390.2065     284.3842
   1412.96570     389.0357     283.1144   1412.96570     389.0357     283.1144
   1412.95044     387.2251     282.0848   1412.95044     387.2251     282.0848
   1412.93518     385.9677     281.1722   1412.93518     385.9677     281.1722
   1412.91992     384.1084     280.1767   1412.91992     384.1084     280.1767
   1412.90466     382.4705     278.8002   1412.90466     382.4705     278.8002
   1412.88940     379.7974     277.8097   1412.88940     379.7974     277.8097
   1412.87415     378.4942     277.1246   1412.87415     378.4942     277.1246
   1412.85889     376.6600     275.6965   1412.85889     376.6600     275.6965
   1412.84363     374.9956     274.5822   1412.84363     374.9956     274.5822
   1412.82837     374.5805     273.5466   1412.82837     374.5805     273.5466
   1412.81311     372.6133     272.7916   1412.81311     372.6133     272.7916
   1412.79785     371.0125     271.4819   1412.79785     371.0125     271.4819
   1412.78259     369.7617     270.8744   1412.78259     369.7617     270.8744
   1412.76733     367.7567     269.9134   1412.76733     367.7567     269.9134
   1412.75208     366.4371     269.2206   1412.75208     366.4371     269.2206
   1412.73682     365.4575     267.9650   1412.73682     365.4575     267.9650
   1412.72156     364.2941     267.5571   1412.72156     364.2941     267.5571
   1412.70630     363.6260     267.1742   1412.70630     363.6260     267.1742
   1412.69104     361.7210     265.8384   1412.69104     361.7210     265.8384
   1412.67578     360.8913     264.9348   1412.67578     360.8913     264.9348
   1412.66052     360.4348     264.4193   1412.66052     360.4348     264.4193
   1412.64526     358.6977     264.0296   1412.64526     358.6977     264.0296
   1412.63000     357.9440     263.1797   1412.63000     357.9440     263.1797
   1412.61475     357.0649     262.9533   1412.61475     357.0649     262.9533
   1412.59949     356.0781     262.1910   1412.59949     356.0781     262.1910
   1412.58423     355.9248     261.6699   1412.58423     355.9248     261.6699
   1412.56897     354.4394     261.1018   1412.56897     354.4394     261.1018
   1412.55371     354.1375     260.6533   1412.55371     354.1375     260.6533
   1412.53845     353.2732     260.4278   1412.53845     353.2732     260.4278
   1412.52319     352.9502     260.0359   1412.52319     352.9502     260.0359
   1412.50793     352.5367     259.2670   1412.50793     352.5367     259.2670
   1412.49268     351.8536     258.7209   1412.49268     351.8536     258.7209
   1412.47742     351.5132     258.7564   1412.47742     351.5132     258.7564
   1412.46216     351.4186     259.1763   1412.46216     351.4186     259.1763
   1412.44690     351.2849     258.6740   1412.44690     351.2849     258.6740
   1412.43164     350.8694     257.5041   1412.43164     350.8694     257.5041
   1412.41638     349.9248     257.9000   1412.41638     349.9248     257.9000
   1412.40112     350.5838     258.2550   1412.40112     350.5838     258.2550
   1412.38586     350.4102     258.0399   1412.38586     350.4102     258.0399
   1412.37061     349.7680     257.7641   1412.37061     349.7680     257.7641
   1412.35535     349.9689     257.5304   1412.35535     349.9689     257.5304
   1412.34009     350.5059     257.7700   1412.34009     350.5059     257.7700
   1412.32483     350.4792     258.3738   1412.32483     350.4792     258.3738
   1412.30957     350.0179     258.3268   1412.30957     350.0179     258.3268
   1412.29431     350.5495     258.3148   1412.29431     350.5495     258.3148
   1412.27905     350.7534     258.5010   1412.27905     350.7534     258.5010
   1412.26379     350.3958     258.9020   1412.26379     350.3958     258.9020
   1412.24854     352.1786     259.0454   1412.24854     352.1786     259.0454
   1412.23328     351.9346     259.1329   1412.23328     351.9346     259.1329
   1412.21802     352.1422     259.8019   1412.21802     352.1422     259.8019
   1412.20276     353.5523     260.3375   1412.20276     353.5523     260.3375