#     FILENAME=!Skynet_57528_lach-hhg-97_20338_20904.cyb.fits
#     BASENAME=Skynet_57528_lach-hhg-97_20338_20904
#     SRC_NAME=lach-hhg-97
#     OBSERVER=hhgmadison16_9500
#     DATE_OBS=2016-05-20T15:17:39.680
#        OBSID=20338
#      SCANNUM=20904
#          MJD=57528.6383
#          UTC=55148
#     SCANTYPE=track
#     DATAMODE=HIRES
#     TUNEFREQ=1420.0000
# Actual_FREQ1=1420.0000
# Actual_FREQ2=1420.0000
#    LO1Tuning=6870.000
#     RFFILTER=1355_1435
#        OBSBW=-15.6250
#        NCHAN=1024 
#        FOCUS=37.0709
#           RA=21:44:01.15
#          DEC=53:09:55.01
#      RA(hrs)=21.733700
#     DEC(deg)=53.165300
#    AZIM(deg)=310.076
#    ELEV(deg)=45.690
#     IFattens=10.00, 9.00
#      WARNING=None
#    TCAL_XL1=7.9635
#    TCAL_YR1=9.1340
#    TCAL_XL2=7.9635
#    TCAL_YR2=9.1340
#     TRX_XL1=11.7060
#     TRX_YR1=11.7060
#     TRX_XL2=11.7060
#     TRX_YR2=11.7060
#        TAVE=1.0000
#Freq1(MHz)          XL1          YR1  Freq2(MHz)          XL2          YR2 

   1427.81250     370.1884     287.7799   1427.81250     370.1884     287.7799
   1427.79724     370.6696     288.0970   1427.79724     370.6696     288.0970
   1427.78198     371.7299     289.0017   1427.78198     371.7299     289.0017
   1427.76672     371.9315     289.2990   1427.76672     371.9315     289.2990
   1427.75146     373.0610     290.6517   1427.75146     373.0610     290.6517
   1427.73621     373.9030     291.6074   1427.73621     373.9030     291.6074
   1427.72095     374.6115     292.7482   1427.72095     374.6115     292.7482
   1427.70569     376.4044     292.9334   1427.70569     376.4044     292.9334
   1427.69043     377.1004     294.4336   1427.69043     377.1004     294.4336
   1427.67517     377.6710     295.2617   1427.67517     377.6710     295.2617
   1427.65991     379.3188     296.2845   1427.65991     379.3188     296.2845
   1427.64465     380.1378     297.7521   1427.64465     380.1378     297.7521
   1427.62939     381.6752     298.9897   1427.62939     381.6752     298.9897
   1427.61414     383.9836     299.6620   1427.61414     383.9836     299.6620
   1427.59888     384.6344     301.0189   1427.59888     384.6344     301.0189
   1427.58362     386.3309     302.2385   1427.58362     386.3309     302.2385
   1427.56836     387.3291     303.1901   1427.56836     387.3291     303.1901
   1427.55310     389.3550     304.8750   1427.55310     389.3550     304.8750
   1427.53784     390.4895     306.1331   1427.53784     390.4895     306.1331
   1427.52258     392.0559     307.6568   1427.52258     392.0559     307.6568
   1427.50732     393.9291     309.1180   1427.50732     393.9291     309.1180
   1427.49207     395.3026     309.9262   1427.49207     395.3026     309.9262
   1427.47681     398.1407     311.9166   1427.47681     398.1407     311.9166
   1427.46155     399.5776     313.4611   1427.46155     399.5776     313.4611
   1427.44629     401.3142     314.8750   1427.44629     401.3142     314.8750
   1427.43103     403.3056     315.6992   1427.43103     403.3056     315.6992
   1427.41577     405.8427     318.1407   1427.41577     405.8427     318.1407
   1427.40051     407.7550     319.7563   1427.40051     407.7550     319.7563
   1427.38525     409.3016     321.7166   1427.38525     409.3016     321.7166
   1427.37000     410.6443     322.9127   1427.37000     410.6443     322.9127
   1427.35474     412.9199     324.3518   1427.35474     412.9199     324.3518
   1427.33948     415.1718     326.0872   1427.33948     415.1718     326.0872
   1427.32422     417.5446     327.8333   1427.32422     417.5446     327.8333
   1427.30896     420.2260     330.4155   1427.30896     420.2260     330.4155
   1427.29370     421.6104     332.0325   1427.29370     421.6104     332.0325
   1427.27844     424.6618     333.1811   1427.27844     424.6618     333.1811
   1427.26318     427.1474     335.3871   1427.26318     427.1474     335.3871
   1427.24792     429.5396     337.2032   1427.24792     429.5396     337.2032
   1427.23267     432.0363     338.8550   1427.23267     432.0363     338.8550
   1427.21741     434.3907     340.8916   1427.21741     434.3907     340.8916
   1427.20215     436.6133     342.6991   1427.20215     436.6133     342.6991
   1427.18689     439.3249     344.5333   1427.18689     439.3249     344.5333
   1427.17163     441.6298     347.1870   1427.17163     441.6298     347.1870
   1427.15637     444.4866     348.7319   1427.15637     444.4866     348.7319
   1427.14111     447.2905     350.4824   1427.14111     447.2905     350.4824
   1427.12585     449.1603     352.6212   1427.12585     449.1603     352.6212
   1427.11060     452.8217     355.0656   1427.11060     452.8217     355.0656
   1427.09534     455.6736     356.5388   1427.09534     455.6736     356.5388
   1427.08008     458.3553     358.9045   1427.08008     458.3553     358.9045
   1427.06482     461.3229     361.2310   1427.06482     461.3229     361.2310
   1427.04956     464.5241     362.6437   1427.04956     464.5241     362.6437
   1427.03430     467.2784     365.5249   1427.03430     467.2784     365.5249
   1427.01904     469.4742     367.7976   1427.01904     469.4742     367.7976
   1427.00378     472.6473     370.1014   1427.00378     472.6473     370.1014
   1426.98853     475.2846     372.4422   1426.98853     475.2846     372.4422
   1426.97327     478.9241     373.7007   1426.97327     478.9241     373.7007
   1426.95801     481.5825     376.2289   1426.95801     481.5825     376.2289
   1426.94275     484.6520     378.9517   1426.94275     484.6520     378.9517
   1426.92749     487.5891     380.9276   1426.92749     487.5891     380.9276
   1426.91223     490.5181     383.0238   1426.91223     490.5181     383.0238
   1426.89697     492.9191     385.3032   1426.89697     492.9191     385.3032
   1426.88171     496.2572     387.1905   1426.88171     496.2572     387.1905
   1426.86646     498.6031     389.6081   1426.86646     498.6031     389.6081
   1426.85120     502.7422     391.3492   1426.85120     502.7422     391.3492
   1426.83594     505.5114     393.8260   1426.83594     505.5114     393.8260
   1426.82068     507.5313     395.5484   1426.82068     507.5313     395.5484
   1426.80542     511.7261     398.4418   1426.80542     511.7261     398.4418
   1426.79016     514.1296     400.7429   1426.79016     514.1296     400.7429
   1426.77490     516.9609     403.0762   1426.77490     516.9609     403.0762
   1426.75964     519.7615     405.1915   1426.75964     519.7615     405.1915
   1426.74438     524.1972     407.2554   1426.74438     524.1972     407.2554
   1426.72913     526.5892     409.7264   1426.72913     526.5892     409.7264
   1426.71387     530.4523     411.2746   1426.71387     530.4523     411.2746
   1426.69861     532.4155     414.2086   1426.69861     532.4155     414.2086
   1426.68335     536.2103     415.9353   1426.68335     536.2103     415.9353
   1426.66809     538.2477     418.0571   1426.66809     538.2477     418.0571
   1426.65283     541.9555     420.9981   1426.65283     541.9555     420.9981
   1426.63757     545.1241     422.4628   1426.63757     545.1241     422.4628
   1426.62231     549.5070     426.0485   1426.62231     549.5070     426.0485
   1426.60706     551.5748     427.8648   1426.60706     551.5748     427.8648
   1426.59180     553.8439     430.1311   1426.59180     553.8439     430.1311
   1426.57654     557.7097     431.1055   1426.57654     557.7097     431.1055
   1426.56128     560.6739     433.4829   1426.56128     560.6739     433.4829
   1426.54602     564.5091     436.4884   1426.54602     564.5091     436.4884
   1426.53076     567.3888     438.3078   1426.53076     567.3888     438.3078
   1426.51550     570.5648     439.9816   1426.51550     570.5648     439.9816
   1426.50024     574.0374     441.8648   1426.50024     574.0374     441.8648
   1426.48499     575.9819     444.6016   1426.48499     575.9819     444.6016
   1426.46973     578.9646     446.9675   1426.46973     578.9646     446.9675
   1426.45447     581.9995     448.8729   1426.45447     581.9995     448.8729
   1426.43921     584.3564     451.4718   1426.43921     584.3564     451.4718
   1426.42395     588.0265     453.8764   1426.42395     588.0265     453.8764
   1426.40869     590.5249     455.7596   1426.40869     590.5249     455.7596
   1426.39343     594.6742     457.5862   1426.39343     594.6742     457.5862
   1426.37817     597.1532     460.1346   1426.37817     597.1532     460.1346
   1426.36292     599.9392     461.8981   1426.36292     599.9392     461.8981
   1426.34766     603.3293     464.3849   1426.34766     603.3293     464.3849
   1426.33240     605.5968     466.3404   1426.33240     605.5968     466.3404
   1426.31714     608.8342     468.3912   1426.31714     608.8342     468.3912
   1426.30188     611.1667     469.8297   1426.30188     611.1667     469.8297
   1426.28662     614.6216     471.7686   1426.28662     614.6216     471.7686
   1426.27136     616.1823     474.4818   1426.27136     616.1823     474.4818
   1426.25610     619.5330     476.5153   1426.25610     619.5330     476.5153
   1426.24084     622.0716     478.1193   1426.24084     622.0716     478.1193
   1426.22559     625.8022     479.4106   1426.22559     625.8022     479.4106
   1426.21033     629.0629     481.3097   1426.21033     629.0629     481.3097
   1426.19507     630.6992     483.6683   1426.19507     630.6992     483.6683
   1426.17981     633.6476     485.9526   1426.17981     633.6476     485.9526
   1426.16455     636.4218     488.5858   1426.16455     636.4218     488.5858
   1426.14929     638.1711     490.5955   1426.14929     638.1711     490.5955
   1426.13403     641.3446     492.0927   1426.13403     641.3446     492.0927
   1426.11877     643.2145     494.1654   1426.11877     643.2145     494.1654
   1426.10352     646.4304     494.5973   1426.10352     646.4304     494.5973
   1426.08826     649.3212     497.7087   1426.08826     649.3212     497.7087
   1426.07300     651.1588     500.4337   1426.07300     651.1588     500.4337
   1426.05774     653.6591     501.1298   1426.05774     653.6591     501.1298
   1426.04248     657.1589     502.7973   1426.04248     657.1589     502.7973
   1426.02722     657.9982     505.5090   1426.02722     657.9982     505.5090
   1426.01196     661.0626     506.0442   1426.01196     661.0626     506.0442
   1425.99670     663.6379     508.8148   1425.99670     663.6379     508.8148
   1425.98145     666.0936     510.4407   1425.98145     666.0936     510.4407
   1425.96619     667.6966     511.9701   1425.96619     667.6966     511.9701
   1425.95093     671.0425     513.7263   1425.95093     671.0425     513.7263
   1425.93567     672.0671     514.7162   1425.93567     672.0671     514.7162
   1425.92041     675.0970     517.7312   1425.92041     675.0970     517.7312
   1425.90515     676.8184     519.1052   1425.90515     676.8184     519.1052
   1425.88989     678.4966     520.4956   1425.88989     678.4966     520.4956
   1425.87463     680.9790     522.0422   1425.87463     680.9790     522.0422
   1425.85938     683.2107     523.5013   1425.85938     683.2107     523.5013
   1425.84412     684.7874     524.6951   1425.84412     684.7874     524.6951
   1425.82886     686.6812     527.1128   1425.82886     686.6812     527.1128
   1425.81360     688.8481     528.7385   1425.81360     688.8481     528.7385
   1425.79834     690.4333     530.8207   1425.79834     690.4333     530.8207
   1425.78308     692.7761     531.3907   1425.78308     692.7761     531.3907
   1425.76782     694.9329     533.6677   1425.76782     694.9329     533.6677
   1425.75256     696.7130     535.0941   1425.75256     696.7130     535.0941
   1425.73730     697.2748     537.2841   1425.73730     697.2748     537.2841
   1425.72205     699.4799     537.3006   1425.72205     699.4799     537.3006
   1425.70679     701.4489     540.0284   1425.70679     701.4489     540.0284
   1425.69153     702.4188     540.9590   1425.69153     702.4188     540.9590
   1425.67627     705.3914     541.6192   1425.67627     705.3914     541.6192
   1425.66101     705.8409     544.2378   1425.66101     705.8409     544.2378
   1425.64575     708.3329     545.2720   1425.64575     708.3329     545.2720
   1425.63049     709.8444     546.2071   1425.63049     709.8444     546.2071
   1425.61523     711.9081     547.8243   1425.61523     711.9081     547.8243
   1425.59998     712.4235     549.2618   1425.59998     712.4235     549.2618
   1425.58472     713.9332     551.0465   1425.58472     713.9332     551.0465
   1425.56946     715.2943     552.5677   1425.56946     715.2943     552.5677
   1425.55420     716.5884     553.7350   1425.55420     716.5884     553.7350
   1425.53894     717.9637     554.7366   1425.53894     717.9637     554.7366
   1425.52368     719.8010     556.5797   1425.52368     719.8010     556.5797
   1425.50842     720.8716     558.1207   1425.50842     720.8716     558.1207
   1425.49316     722.1289     557.8066   1425.49316     722.1289     557.8066
   1425.47791     723.1496     559.9785   1425.47791     723.1496     559.9785
   1425.46265     725.6163     562.2336   1425.46265     725.6163     562.2336
   1425.44739     726.3414     562.4418   1425.44739     726.3414     562.4418
   1425.43213     727.9190     563.9775   1425.43213     727.9190     563.9775
   1425.41687     727.8893     565.8747   1425.41687     727.8893     565.8747
   1425.40161     729.1927     566.3799   1425.40161     729.1927     566.3799
   1425.38635     731.8123     568.1976   1425.38635     731.8123     568.1976
   1425.37109     731.5177     568.8956   1425.37109     731.5177     568.8956
   1425.35583     733.0033     570.5391   1425.35583     733.0033     570.5391
   1425.34058     733.4056     570.8994   1425.34058     733.4056     570.8994
   1425.32532     734.7372     572.5858   1425.32532     734.7372     572.5858
   1425.31006     736.4509     573.9568   1425.31006     736.4509     573.9568
   1425.29480     736.6844     574.0211   1425.29480     736.6844     574.0211
   1425.27954     738.1189     575.1820   1425.27954     738.1189     575.1820
   1425.26428     737.3158     575.9579   1425.26428     737.3158     575.9579
   1425.24902     738.6117     578.4206   1425.24902     738.6117     578.4206
   1425.23376     739.6135     579.6809   1425.23376     739.6135     579.6809
   1425.21851     740.0151     580.5005   1425.21851     740.0151     580.5005
   1425.20325     740.6982     581.1434   1425.20325     740.6982     581.1434
   1425.18799     741.5806     582.2143   1425.18799     741.5806     582.2143
   1425.17273     742.6104     582.2454   1425.17273     742.6104     582.2454
   1425.15747     743.1136     583.8303   1425.15747     743.1136     583.8303
   1425.14221     743.4848     585.1906   1425.14221     743.4848     585.1906
   1425.12695     744.1497     584.7966   1425.12695     744.1497     584.7966
   1425.11169     745.8022     587.2926   1425.11169     745.8022     587.2926
   1425.09644     745.2502     587.0289   1425.09644     745.2502     587.0289
   1425.08118     746.4170     589.4293   1425.08118     746.4170     589.4293
   1425.06592     745.8448     589.2992   1425.06592     745.8448     589.2992
   1425.05066     747.5795     589.8712   1425.05066     747.5795     589.8712
   1425.03540     748.3092     591.9451   1425.03540     748.3092     591.9451
   1425.02014     748.2360     592.4906   1425.02014     748.2360     592.4906
   1425.00488     748.9239     594.1019   1425.00488     748.9239     594.1019
   1424.98962     748.7458     593.7438   1424.98962     748.7458     593.7438
   1424.97437     749.4443     595.8641   1424.97437     749.4443     595.8641
   1424.95911     749.4644     595.7659   1424.95911     749.4644     595.7659
   1424.94385     749.2591     598.4132   1424.94385     749.2591     598.4132
   1424.92859     751.0923     598.4299   1424.92859     751.0923     598.4299
   1424.91333     749.6151     598.7352   1424.91333     749.6151     598.7352
   1424.89807     751.1376     599.0465   1424.89807     751.1376     599.0465
   1424.88281     750.4091     600.1841   1424.88281     750.4091     600.1841
   1424.86755     750.4866     600.8336   1424.86755     750.4866     600.8336
   1424.85229     751.5660     602.0388   1424.85229     751.5660     602.0388
   1424.83704     751.5919     602.5795   1424.83704     751.5919     602.5795
   1424.82178     750.9286     604.1889   1424.82178     750.9286     604.1889
   1424.80652     750.7848     604.6413   1424.80652     750.7848     604.6413
   1424.79126     752.0277     606.2094   1424.79126     752.0277     606.2094
   1424.77600     751.1312     606.2460   1424.77600     751.1312     606.2460
   1424.76074     751.2825     605.9559   1424.76074     751.2825     605.9559
   1424.74548     752.5530     607.1934   1424.74548     752.5530     607.1934
   1424.73022     752.3445     607.3422   1424.73022     752.3445     607.3422
   1424.71497     751.6231     608.8356   1424.71497     751.6231     608.8356
   1424.69971     753.4933     609.8995   1424.69971     753.4933     609.8995
   1424.68445     752.9614     609.8357   1424.68445     752.9614     609.8357
   1424.66919     751.4404     612.1100   1424.66919     751.4404     612.1100
   1424.65393     751.7247     613.0468   1424.65393     751.7247     613.0468
   1424.63867     751.1710     613.1219   1424.63867     751.1710     613.1219
   1424.62341     751.6639     612.8386   1424.62341     751.6639     612.8386
   1424.60815     752.2756     615.1482   1424.60815     752.2756     615.1482
   1424.59290     751.8198     614.9016   1424.59290     751.8198     614.9016
   1424.57764     752.1228     615.4950   1424.57764     752.1228     615.4950
   1424.56238     751.0222     616.3300   1424.56238     751.0222     616.3300
   1424.54712     751.7910     616.4768   1424.54712     751.7910     616.4768
   1424.53186     752.1692     616.7178   1424.53186     752.1692     616.7178
   1424.51660     751.0641     618.2809   1424.51660     751.0641     618.2809
   1424.50134     751.5842     618.3832   1424.50134     751.5842     618.3832
   1424.48608     752.0703     619.6231   1424.48608     752.0703     619.6231
   1424.47083     750.7537     619.5698   1424.47083     750.7537     619.5698
   1424.45557     751.9804     620.1302   1424.45557     751.9804     620.1302
   1424.44031     751.8865     621.4899   1424.44031     751.8865     621.4899
   1424.42505     749.9962     621.2596   1424.42505     749.9962     621.2596
   1424.40979     749.5615     623.0594   1424.40979     749.5615     623.0594
   1424.39453     750.3466     622.5835   1424.39453     750.3466     622.5835
   1424.37927     749.5063     623.3165   1424.37927     749.5063     623.3165
   1424.36401     749.1069     624.9691   1424.36401     749.1069     624.9691
   1424.34875     749.6755     623.9915   1424.34875     749.6755     623.9915
   1424.33350     749.9122     625.7512   1424.33350     749.9122     625.7512
   1424.31824     748.1527     625.2935   1424.31824     748.1527     625.2935
   1424.30298     748.2867     625.6795   1424.30298     748.2867     625.6795
   1424.28772     748.4730     626.2354   1424.28772     748.4730     626.2354
   1424.27246     748.1978     628.1571   1424.27246     748.1978     628.1571
   1424.25720     748.4752     628.3170   1424.25720     748.4752     628.3170
   1424.24194     747.0779     629.1801   1424.24194     747.0779     629.1801
   1424.22668     748.7131     629.0211   1424.22668     748.7131     629.0211
   1424.21143     748.0425     630.2191   1424.21143     748.0425     630.2191
   1424.19617     747.1774     630.7868   1424.19617     747.1774     630.7868
   1424.18091     747.5423     630.1350   1424.18091     747.5423     630.1350
   1424.16565     746.8772     632.7415   1424.16565     746.8772     632.7415
   1424.15039     746.8887     631.9799   1424.15039     746.8887     631.9799
   1424.13513     746.5593     632.5820   1424.13513     746.5593     632.5820
   1424.11987     746.8162     632.0427   1424.11987     746.8162     632.0427
   1424.10461     745.4157     633.4302   1424.10461     745.4157     633.4302
   1424.08936     746.0800     633.7995   1424.08936     746.0800     633.7995
   1424.07410     745.3032     634.3582   1424.07410     745.3032     634.3582
   1424.05884     744.7369     634.9314   1424.05884     744.7369     634.9314
   1424.04358     744.5490     635.4652   1424.04358     744.5490     635.4652
   1424.02832     745.2837     635.6940   1424.02832     745.2837     635.6940
   1424.01306     743.3707     634.4882   1424.01306     743.3707     634.4882
   1423.99780     743.9743     636.8401   1423.99780     743.9743     636.8401
   1423.98254     742.4279     636.2574   1423.98254     742.4279     636.2574
   1423.96729     743.5564     637.3202   1423.96729     743.5564     637.3202
   1423.95203     741.9929     638.0365   1423.95203     741.9929     638.0365
   1423.93677     742.1271     637.7578   1423.93677     742.1271     637.7578
   1423.92151     741.8437     638.5147   1423.92151     741.8437     638.5147
   1423.90625     741.8569     639.8190   1423.90625     741.8569     639.8190
   1423.89099     742.3123     640.3328   1423.89099     742.3123     640.3328
   1423.87573     740.3559     640.3362   1423.87573     740.3559     640.3362
   1423.86047     742.3710     640.6966   1423.86047     742.3710     640.6966
   1423.84521     739.6040     641.1404   1423.84521     739.6040     641.1404
   1423.82996     740.6613     640.7416   1423.82996     740.6613     640.7416
   1423.81470     741.1340     641.5680   1423.81470     741.1340     641.5680
   1423.79944     739.0861     641.7128   1423.79944     739.0861     641.7128
   1423.78418     739.5925     642.4442   1423.78418     739.5925     642.4442
   1423.76892     739.6686     642.2465   1423.76892     739.6686     642.2465
   1423.75366     738.9698     641.9962   1423.75366     738.9698     641.9962
   1423.73840     738.3220     643.5740   1423.73840     738.3220     643.5740
   1423.72314     738.1252     643.7448   1423.72314     738.1252     643.7448
   1423.70789     738.7132     643.3503   1423.70789     738.7132     643.3503
   1423.69263     737.4403     643.6769   1423.69263     737.4403     643.6769
   1423.67737     737.8026     644.8193   1423.67737     737.8026     644.8193
   1423.66211     737.9213     644.4185   1423.66211     737.9213     644.4185
   1423.64685     736.4606     645.5503   1423.64685     736.4606     645.5503
   1423.63159     737.4344     646.1458   1423.63159     737.4344     646.1458
   1423.61633     736.4902     645.6658   1423.61633     736.4902     645.6658
   1423.60107     736.5158     645.3802   1423.60107     736.5158     645.3802
   1423.58582     736.1552     646.8554   1423.58582     736.1552     646.8554
   1423.57056     736.5720     645.6882   1423.57056     736.5720     645.6882
   1423.55530     735.5382     646.2123   1423.55530     735.5382     646.2123
   1423.54004     735.7820     646.8193   1423.54004     735.7820     646.8193
   1423.52478     735.0050     646.9828   1423.52478     735.0050     646.9828
   1423.50952     735.3497     646.9901   1423.50952     735.3497     646.9901
   1423.49426     735.1234     646.8124   1423.49426     735.1234     646.8124
   1423.47900     734.3167     646.8204   1423.47900     734.3167     646.8204
   1423.46375     734.3688     647.6191   1423.46375     734.3688     647.6191
   1423.44849     734.1353     647.9280   1423.44849     734.1353     647.9280
   1423.43323     733.3904     647.3227   1423.43323     733.3904     647.3227
   1423.41797     733.5123     648.0432   1423.41797     733.5123     648.0432
   1423.40271     733.2500     647.8847   1423.40271     733.2500     647.8847
   1423.38745     734.2260     646.9974   1423.38745     734.2260     646.9974
   1423.37219     733.5251     647.5118   1423.37219     733.5251     647.5118
   1423.35693     731.8220     647.4864   1423.35693     731.8220     647.4864
   1423.34167     731.6303     645.7955   1423.34167     731.6303     645.7955
   1423.32642     731.3976     648.4678   1423.32642     731.3976     648.4678
   1423.31116     730.6656     648.2319   1423.31116     730.6656     648.2319
   1423.29590     731.2007     646.6191   1423.29590     731.2007     646.6191
   1423.28064     731.8801     647.4168   1423.28064     731.8801     647.4168
   1423.26538     730.9412     647.2014   1423.26538     730.9412     647.2014
   1423.25012     729.7258     646.4978   1423.25012     729.7258     646.4978
   1423.23486     729.8524     645.9969   1423.23486     729.8524     645.9969
   1423.21960     729.2734     647.1072   1423.21960     729.2734     647.1072
   1423.20435     730.0464     647.5815   1423.20435     730.0464     647.5815
   1423.18909     729.7977     646.5947   1423.18909     729.7977     646.5947
   1423.17383     728.7424     646.7227   1423.17383     728.7424     646.7227
   1423.15857     730.2589     646.9957   1423.15857     730.2589     646.9957
   1423.14331     729.1320     646.5073   1423.14331     729.1320     646.5073
   1423.12805     728.3619     645.1956   1423.12805     728.3619     645.1956
   1423.11279     729.2191     646.0042   1423.11279     729.2191     646.0042
   1423.09753     727.7990     645.9675   1423.09753     727.7990     645.9675
   1423.08228     729.5417     644.7269   1423.08228     729.5417     644.7269
   1423.06702     726.8598     644.2152   1423.06702     726.8598     644.2152
   1423.05176     728.1608     644.7892   1423.05176     728.1608     644.7892
   1423.03650     727.1676     643.6554   1423.03650     727.1676     643.6554
   1423.02124     728.2905     643.5070   1423.02124     728.2905     643.5070
   1423.00598     726.5813     643.5079   1423.00598     726.5813     643.5079
   1422.99072     726.8734     643.4559   1422.99072     726.8734     643.4559
   1422.97546     726.6876     643.1921   1422.97546     726.6876     643.1921
   1422.96021     726.6086     642.8816   1422.96021     726.6086     642.8816
   1422.94495     727.0977     642.1749   1422.94495     727.0977     642.1749
   1422.92969     727.6089     641.7872   1422.92969     727.6089     641.7872
   1422.91443     726.4604     641.2006   1422.91443     726.4604     641.2006
   1422.89917     725.4347     641.1577   1422.89917     725.4347     641.1577
   1422.88391     725.4310     640.3898   1422.88391     725.4310     640.3898
   1422.86865     726.6253     640.1700   1422.86865     726.6253     640.1700
   1422.85339     725.0261     639.1044   1422.85339     725.0261     639.1044
   1422.83813     723.5718     637.9006   1422.83813     723.5718     637.9006
   1422.82288     725.1113     637.6021   1422.82288     725.1113     637.6021
   1422.80762     725.6254     638.1758   1422.80762     725.6254     638.1758
   1422.79236     723.2291     637.4562   1422.79236     723.2291     637.4562
   1422.77710     725.0103     636.5133   1422.77710     725.0103     636.5133
   1422.76184     725.1780     635.6813   1422.76184     725.1780     635.6813
   1422.74658     723.9732     634.0484   1422.74658     723.9732     634.0484
   1422.73132     723.1236     634.7224   1422.73132     723.1236     634.7224
   1422.71606     723.2807     633.6062   1422.71606     723.2807     633.6062
   1422.70081     723.5084     632.4542   1422.70081     723.5084     632.4542
   1422.68555     722.5461     632.3464   1422.68555     722.5461     632.3464
   1422.67029     723.5815     632.0999   1422.67029     723.5815     632.0999
   1422.65503     722.7623     631.1874   1422.65503     722.7623     631.1874
   1422.63977     721.6121     629.9505   1422.63977     721.6121     629.9505
   1422.62451     721.9685     629.5642   1422.62451     721.9685     629.5642
   1422.60925     721.9395     628.9531   1422.60925     721.9395     628.9531
   1422.59399     722.5027     628.4034   1422.59399     722.5027     628.4034
   1422.57874     722.6537     627.5281   1422.57874     722.6537     627.5281
   1422.56348     721.8722     626.1055   1422.56348     721.8722     626.1055
   1422.54822     722.2235     625.4876   1422.54822     722.2235     625.4876
   1422.53296     721.4167     623.8157   1422.53296     721.4167     623.8157
   1422.51770     721.5486     623.7370   1422.51770     721.5486     623.7370
   1422.50244     720.1422     623.0659   1422.50244     720.1422     623.0659
   1422.48718     720.2846     621.9344   1422.48718     720.2846     621.9344
   1422.47192     719.4890     621.9232   1422.47192     719.4890     621.9232
   1422.45667     720.6657     620.1422   1422.45667     720.6657     620.1422
   1422.44141     719.9783     618.4844   1422.44141     719.9783     618.4844
   1422.42615     719.1708     617.3979   1422.42615     719.1708     617.3979
   1422.41089     719.4059     617.2414   1422.41089     719.4059     617.2414
   1422.39563     719.1486     615.9583   1422.39563     719.1486     615.9583
   1422.38037     719.6246     615.2066   1422.38037     719.6246     615.2066
   1422.36511     718.1909     614.7014   1422.36511     718.1909     614.7014
   1422.34985     719.6890     614.0130   1422.34985     719.6890     614.0130
   1422.33459     719.0869     613.2054   1422.33459     719.0869     613.2054
   1422.31934     718.2940     610.1941   1422.31934     718.2940     610.1941
   1422.30408     717.3498     610.4224   1422.30408     717.3498     610.4224
   1422.28882     719.4031     609.6643   1422.28882     719.4031     609.6643
   1422.27356     717.4412     608.1071   1422.27356     717.4412     608.1071
   1422.25830     718.2791     606.7739   1422.25830     718.2791     606.7739
   1422.24304     717.6155     606.5977   1422.24304     717.6155     606.5977
   1422.22778     718.2744     604.3864   1422.22778     718.2744     604.3864
   1422.21252     717.6937     603.4567   1422.21252     717.6937     603.4567
   1422.19727     717.5789     603.0295   1422.19727     717.5789     603.0295
   1422.18201     717.5886     601.1912   1422.18201     717.5886     601.1912
   1422.16675     715.7753     600.8726   1422.16675     715.7753     600.8726
   1422.15149     715.7215     598.2325   1422.15149     715.7215     598.2325
   1422.13623     717.8012     598.4564   1422.13623     717.8012     598.4564
   1422.12097     717.0353     596.8008   1422.12097     717.0353     596.8008
   1422.10571     716.6953     595.2484   1422.10571     716.6953     595.2484
   1422.09045     716.9284     593.7766   1422.09045     716.9284     593.7766
   1422.07520     715.5964     593.1976   1422.07520     715.5964     593.1976
   1422.05994     716.0395     591.7265   1422.05994     716.0395     591.7265
   1422.04468     714.5613     590.4623   1422.04468     714.5613     590.4623
   1422.02942     715.2412     590.3504   1422.02942     715.2412     590.3504
   1422.01416     715.1267     587.5697   1422.01416     715.1267     587.5697
   1421.99890     714.7892     586.9910   1421.99890     714.7892     586.9910
   1421.98364     714.3812     585.4390   1421.98364     714.3812     585.4390
   1421.96838     715.0477     584.9332   1421.96838     715.0477     584.9332
   1421.95312     714.0562     583.3180   1421.95312     714.0562     583.3180
   1421.93787     714.9993     581.1616   1421.93787     714.9993     581.1616
   1421.92261     713.8136     580.3652   1421.92261     713.8136     580.3652
   1421.90735     713.1653     578.9774   1421.90735     713.1653     578.9774
   1421.89209     713.4513     578.7257   1421.89209     713.4513     578.7257
   1421.87683     713.5668     577.2122   1421.87683     713.5668     577.2122
   1421.86157     713.3987     575.5950   1421.86157     713.3987     575.5950
   1421.84631     712.5757     574.0342   1421.84631     712.5757     574.0342
   1421.83105     713.1299     571.5840   1421.83105     713.1299     571.5840
   1421.81580     711.9840     571.7064   1421.81580     711.9840     571.7064
   1421.80054     713.6439     570.1921   1421.80054     713.6439     570.1921
   1421.78528     711.9172     569.5160   1421.78528     711.9172     569.5160
   1421.77002     713.0089     567.8895   1421.77002     713.0089     567.8895
   1421.75476     711.5721     564.8964   1421.75476     711.5721     564.8964
   1421.73950     710.1666     563.8818   1421.73950     710.1666     563.8818
   1421.72424     711.9364     563.9344   1421.72424     711.9364     563.9344
   1421.70898     709.8921     561.3674   1421.70898     709.8921     561.3674
   1421.69373     710.6434     559.8809   1421.69373     710.6434     559.8809
   1421.67847     710.5832     559.4205   1421.67847     710.5832     559.4205
   1421.66321     711.0175     558.1053   1421.66321     711.0175     558.1053
   1421.64795     711.5636     556.7120   1421.64795     711.5636     556.7120
   1421.63269     709.2528     555.4069   1421.63269     709.2528     555.4069
   1421.61743     709.7213     553.8552   1421.61743     709.7213     553.8552
   1421.60217     710.5052     551.8557   1421.60217     710.5052     551.8557
   1421.58691     710.2214     551.0742   1421.58691     710.2214     551.0742
   1421.57166     711.4387     549.7109   1421.57166     711.4387     549.7109
   1421.55640     710.0938     547.9649   1421.55640     710.0938     547.9649
   1421.54114     708.6713     546.0268   1421.54114     708.6713     546.0268
   1421.52588     708.9990     545.1572   1421.52588     708.9990     545.1572
   1421.51062     707.9990     544.4701   1421.51062     707.9990     544.4701
   1421.49536     708.1705     542.9222   1421.49536     708.1705     542.9222
   1421.48010     707.1266     540.8932   1421.48010     707.1266     540.8932
   1421.46484     707.9615     540.3311   1421.46484     707.9615     540.3311
   1421.44958     709.2927     537.4275   1421.44958     709.2927     537.4275
   1421.43433     708.3453     537.6390   1421.43433     708.3453     537.6390
   1421.41907     708.0502     536.0633   1421.41907     708.0502     536.0633
   1421.40381     706.1924     535.0551   1421.40381     706.1924     535.0551
   1421.38855     707.2119     532.4841   1421.38855     707.2119     532.4841
   1421.37329     706.6940     531.6825   1421.37329     706.6940     531.6825
   1421.35803     707.1559     530.3386   1421.35803     707.1559     530.3386
   1421.34277     707.1066     528.8751   1421.34277     707.1066     528.8751
   1421.32751     706.9506     528.5016   1421.32751     706.9506     528.5016
   1421.31226     706.7853     525.6096   1421.31226     706.7853     525.6096
   1421.29700     706.1978     524.8426   1421.29700     706.1978     524.8426
   1421.28174     707.4232     523.5731   1421.28174     707.4232     523.5731
   1421.26648     706.8856     522.3104   1421.26648     706.8856     522.3104
   1421.25122     707.4745     521.2334   1421.25122     707.4745     521.2334
   1421.23596     706.8271     519.8515   1421.23596     706.8271     519.8515
   1421.22070     707.3497     519.2509   1421.22070     707.3497     519.2509
   1421.20544     708.7795     519.0557   1421.20544     708.7795     519.0557
   1421.19019     710.9167     519.2440   1421.19019     710.9167     519.2440
   1421.17493     712.3795     518.8648   1421.17493     712.3795     518.8648
   1421.15967     715.7180     520.7900   1421.15967     715.7180     520.7900
   1421.14441     721.2134     522.8704   1421.14441     721.2134     522.8704
   1421.12915     727.8153     526.1434   1421.12915     727.8153     526.1434
   1421.11389     736.5486     531.8055   1421.11389     736.5486     531.8055
   1421.09863     751.0605     540.2698   1421.09863     751.0605     540.2698
   1421.08337     774.4651     556.8197   1421.08337     774.4651     556.8197
   1421.06812     817.9101     583.1028   1421.06812     817.9101     583.1028
   1421.05286     871.6242     620.8378   1421.05286     871.6242     620.8378
   1421.03760     926.9877     655.4904   1421.03760     926.9877     655.4904
   1421.02234     932.2589     658.0019   1421.02234     932.2589     658.0019
   1421.00708     908.5788     641.5375   1421.00708     908.5788     641.5375
   1420.99182     884.8709     624.2362   1420.99182     884.8709     624.2362
   1420.97656     866.1640     609.9822   1420.97656     866.1640     609.9822
   1420.96130     858.9023     603.8500   1420.96130     858.9023     603.8500
   1420.94604     879.8733     615.0275   1420.94604     879.8733     615.0275
   1420.93079     936.8785     653.9204   1420.93079     936.8785     653.9204
   1420.91553    1031.6893     717.8205   1420.91553    1031.6893     717.8205
   1420.90027    1083.1035     749.0135   1420.90027    1083.1035     749.0135
   1420.88501    1096.7008     759.4102   1420.88501    1096.7008     759.4102
   1420.86975    1130.3984     778.3820   1420.86975    1130.3984     778.3820
   1420.85449    1234.7114     845.7374   1420.85449    1234.7114     845.7374
   1420.83923    1421.8158     971.8375   1420.83923    1421.8158     971.8375
   1420.82397    1577.9136    1074.6116   1420.82397    1577.9136    1074.6116
   1420.80872    1647.9302    1118.6855   1420.80872    1647.9302    1118.6855
   1420.79346    1755.6949    1184.3474   1420.79346    1755.6949    1184.3474
   1420.77820    1827.9686    1227.6627   1420.77820    1827.9686    1227.6627
   1420.76294    1801.6516    1204.9773   1420.76294    1801.6516    1204.9773
   1420.74768    1853.7108    1237.3512   1420.74768    1853.7108    1237.3512
   1420.73242    1854.8503    1237.4401   1420.73242    1854.8503    1237.4401
   1420.71716    1933.5811    1290.6790   1420.71716    1933.5811    1290.6790
   1420.70190    1883.5515    1255.8745   1420.70190    1883.5515    1255.8745
   1420.68665    1664.1697    1108.2491   1420.68665    1664.1697    1108.2491
   1420.67139    1426.6467     950.2454   1420.67139    1426.6467     950.2454
   1420.65613    1318.1047     876.5195   1420.65613    1318.1047     876.5195
   1420.64087    1343.5825     889.9266   1420.64087    1343.5825     889.9266
   1420.62561    1377.9230     914.0931   1420.62561    1377.9230     914.0931
   1420.61035    1426.0312     938.2067   1420.61035    1426.0312     938.2067
   1420.59509    1510.2491     992.1301   1420.59509    1510.2491     992.1301
   1420.57983    1766.0580    1154.1656   1420.57983    1766.0580    1154.1656
   1420.56458    1949.1592    1269.5276   1420.56458    1949.1592    1269.5276
   1420.54932    1851.8330    1203.8201   1420.54932    1851.8330    1203.8201
   1420.53406    1717.5137    1114.8887   1420.53406    1717.5137    1114.8887
   1420.51880    1827.3544    1184.8119   1420.51880    1827.3544    1184.8119
   1420.50354    1633.2117    1054.6206   1420.50354    1633.2117    1054.6206
   1420.48828    1125.1263     732.6040   1420.48828    1125.1263     732.6040
   1420.47302     876.4116     571.9380   1420.47302     876.4116     571.9380
   1420.45776     792.2505     517.4014   1420.45776     792.2505     517.4014
   1420.44250     750.7260     492.2631   1420.44250     750.7260     492.2631
   1420.42725     731.1337     477.1724   1420.42725     731.1337     477.1724
   1420.41199     717.4428     468.1890   1420.41199     717.4428     468.1890
   1420.39673     710.7150     464.4489   1420.39673     710.7150     464.4489
   1420.38147     706.9917     460.3828   1420.38147     706.9917     460.3828
   1420.36621     705.0823     457.5580   1420.36621     705.0823     457.5580
   1420.35095     703.4204     456.1993   1420.35095     703.4204     456.1993
   1420.33569     702.8085     455.1493   1420.33569     702.8085     455.1493
   1420.32043     702.7595     453.9617   1420.32043     702.7595     453.9617
   1420.30518     702.0094     452.5360   1420.30518     702.0094     452.5360
   1420.28992     702.7495     451.2932   1420.28992     702.7495     451.2932
   1420.27466     702.9880     449.6881   1420.27466     702.9880     449.6881
   1420.25940     701.4980     449.0663   1420.25940     701.4980     449.0663
   1420.24414     700.2167     448.0471   1420.24414     700.2167     448.0471
   1420.22888     699.7059     447.3899   1420.22888     699.7059     447.3899
   1420.21362     700.6274     446.3706   1420.21362     700.6274     446.3706
   1420.19836     699.4128     444.6723   1420.19836     699.4128     444.6723
   1420.18311     698.6137     444.2311   1420.18311     698.6137     444.2311
   1420.16785     696.2648     442.2130   1420.16785     696.2648     442.2130
   1420.15259     696.5491     440.4940   1420.15259     696.5491     440.4940
   1420.13733     697.1970     439.7653   1420.13733     697.1970     439.7653
   1420.12207     694.7839     438.3707   1420.12207     694.7839     438.3707
   1420.10681     695.0440     437.4920   1420.10681     695.0440     437.4920
   1420.09155     694.0759     437.6092   1420.09155     694.0759     437.6092
   1420.07629     692.6989     436.1017   1420.07629     692.6989     436.1017
   1420.06104     694.4251     435.4560   1420.06104     694.4251     435.4560
   1420.04578     693.5392     434.1325   1420.04578     693.5392     434.1325
   1420.03052     693.8705     434.1707   1420.03052     693.8705     434.1707
   1420.01526     694.9496     433.6198   1420.01526     694.9496     433.6198
   1420.00000     694.9621     434.2445   1420.00000     694.9621     434.2445
   1419.98474     694.9744     434.8690   1419.98474     694.9744     434.8690
   1419.96948     694.9385     431.9599   1419.96948     694.9385     431.9599
   1419.95422     692.5514     430.4686   1419.95422     692.5514     430.4686
   1419.93896     693.4870     429.2628   1419.93896     693.4870     429.2628
   1419.92371     693.4986     428.6676   1419.92371     693.4986     428.6676
   1419.90845     692.3168     428.4997   1419.90845     692.3168     428.4997
   1419.89319     693.8801     428.0692   1419.89319     693.8801     428.0692
   1419.87793     693.2750     427.5591   1419.87793     693.2750     427.5591
   1419.86267     694.4794     427.3497   1419.86267     694.4794     427.3497
   1419.84741     693.5390     426.6726   1419.84741     693.5390     426.6726
   1419.83215     693.8876     426.0146   1419.83215     693.8876     426.0146
   1419.81689     694.4050     426.2531   1419.81689     694.4050     426.2531
   1419.80164     693.0095     425.5754   1419.80164     693.0095     425.5754
   1419.78638     694.8276     424.8276   1419.78638     694.8276     424.8276
   1419.77112     694.9172     424.9123   1419.77112     694.9172     424.9123
   1419.75586     694.9476     423.7894   1419.75586     694.9476     423.7894
   1419.74060     696.1813     423.4261   1419.74060     696.1813     423.4261
   1419.72534     695.5654     423.4423   1419.72534     695.5654     423.4423
   1419.71008     695.3779     423.3448   1419.71008     695.3779     423.3448
   1419.69482     695.6063     423.0049   1419.69482     695.6063     423.0049
   1419.67957     697.6901     422.3816   1419.67957     697.6901     422.3816
   1419.66431     697.4376     422.9191   1419.66431     697.4376     422.9191
   1419.64905     697.8022     422.4254   1419.64905     697.8022     422.4254
   1419.63379     697.2922     422.0775   1419.63379     697.2922     422.0775
   1419.61853     697.8867     421.5865   1419.61853     697.8867     421.5865
   1419.60327     699.1094     422.8882   1419.60327     699.1094     422.8882
   1419.58801     698.4887     421.0419   1419.58801     698.4887     421.0419
   1419.57275     699.6174     420.8058   1419.57275     699.6174     420.8058
   1419.55750     698.8912     420.7223   1419.55750     698.8912     420.7223
   1419.54224     700.1686     420.8921   1419.54224     700.1686     420.8921
   1419.52698     699.8384     421.1092   1419.52698     699.8384     421.1092
   1419.51172     699.7103     420.6595   1419.51172     699.7103     420.6595
   1419.49646     700.5693     420.1758   1419.49646     700.5693     420.1758
   1419.48120     702.0983     420.3892   1419.48120     702.0983     420.3892
   1419.46594     700.9456     420.5631   1419.46594     700.9456     420.5631
   1419.45068     701.9102     419.9685   1419.45068     701.9102     419.9685
   1419.43542     702.8040     419.7289   1419.43542     702.8040     419.7289
   1419.42017     702.0078     420.2618   1419.42017     702.0078     420.2618
   1419.40491     703.8793     419.9811   1419.40491     703.8793     419.9811
   1419.38965     703.9689     420.1054   1419.38965     703.9689     420.1054
   1419.37439     704.3350     420.3398   1419.37439     704.3350     420.3398
   1419.35913     703.9005     419.6292   1419.35913     703.9005     419.6292
   1419.34387     704.9383     419.8154   1419.34387     704.9383     419.8154
   1419.32861     704.9456     419.5319   1419.32861     704.9456     419.5319
   1419.31335     705.1340     419.8497   1419.31335     705.1340     419.8497
   1419.29810     705.7046     419.6373   1419.29810     705.7046     419.6373
   1419.28284     705.9111     420.3162   1419.28284     705.9111     420.3162
   1419.26758     707.2429     420.5420   1419.26758     707.2429     420.5420
   1419.25232     706.8661     420.7085   1419.25232     706.8661     420.7085
   1419.23706     707.2934     420.7079   1419.23706     707.2934     420.7079
   1419.22180     709.1063     419.9052   1419.22180     709.1063     419.9052
   1419.20654     708.8411     420.6378   1419.20654     708.8411     420.6378
   1419.19128     709.0848     420.6531   1419.19128     709.0848     420.6531
   1419.17603     709.5342     420.8703   1419.17603     709.5342     420.8703
   1419.16077     710.8828     421.3348   1419.16077     710.8828     421.3348
   1419.14551     710.7063     421.2323   1419.14551     710.7063     421.2323
   1419.13025     711.4621     421.5874   1419.13025     711.4621     421.5874
   1419.11499     712.7568     421.6792   1419.11499     712.7568     421.6792
   1419.09973     712.1258     421.6275   1419.09973     712.1258     421.6275
   1419.08447     713.0039     422.0348   1419.08447     713.0039     422.0348
   1419.06921     714.1824     421.3770   1419.06921     714.1824     421.3770
   1419.05396     712.4333     422.1295   1419.05396     712.4333     422.1295
   1419.03870     714.6769     422.4577   1419.03870     714.6769     422.4577
   1419.02344     715.6050     423.1132   1419.02344     715.6050     423.1132
   1419.00818     716.0480     422.1834   1419.00818     716.0480     422.1834
   1418.99292     717.0787     423.9674   1418.99292     717.0787     423.9674
   1418.97766     716.9146     424.0554   1418.97766     716.9146     424.0554
   1418.96240     717.9975     423.6547   1418.96240     717.9975     423.6547
   1418.94714     718.8749     424.5903   1418.94714     718.8749     424.5903
   1418.93188     719.5607     424.6351   1418.93188     719.5607     424.6351
   1418.91663     719.1182     424.5978   1418.91663     719.1182     424.5978
   1418.90137     720.5256     425.0480   1418.90137     720.5256     425.0480
   1418.88611     719.9109     425.4610   1418.88611     719.9109     425.4610
   1418.87085     720.9113     426.0072   1418.87085     720.9113     426.0072
   1418.85559     721.7025     425.9456   1418.85559     721.7025     425.9456
   1418.84033     722.2014     427.1220   1418.84033     722.2014     427.1220
   1418.82507     723.5468     427.1024   1418.82507     723.5468     427.1024
   1418.80981     724.7137     427.5081   1418.80981     724.7137     427.5081
   1418.79456     724.4651     428.2730   1418.79456     724.4651     428.2730
   1418.77930     725.4261     428.7186   1418.77930     725.4261     428.7186
   1418.76404     726.4473     429.7343   1418.76404     726.4473     429.7343
   1418.74878     727.4290     429.7473   1418.74878     727.4290     429.7473
   1418.73352     726.7509     429.8354   1418.73352     726.7509     429.8354
   1418.71826     729.3282     430.6353   1418.71826     729.3282     430.6353
   1418.70300     729.4343     430.6502   1418.70300     729.4343     430.6502
   1418.68774     729.9403     431.6502   1418.68774     729.9403     431.6502
   1418.67249     730.2878     431.7343   1418.67249     730.2878     431.7343
   1418.65723     731.3259     432.6716   1418.65723     731.3259     432.6716
   1418.64197     732.1410     433.4556   1418.64197     732.1410     433.4556
   1418.62671     734.2866     434.3847   1418.62671     734.2866     434.3847
   1418.61145     732.8666     433.9066   1418.61145     732.8666     433.9066
   1418.59619     734.1343     434.8391   1418.59619     734.1343     434.8391
   1418.58093     735.9022     435.2985   1418.58093     735.9022     435.2985
   1418.56567     734.2303     436.4180   1418.56567     734.2303     436.4180
   1418.55042     736.4822     437.0315   1418.55042     736.4822     437.0315
   1418.53516     737.4166     436.4677   1418.53516     737.4166     436.4677
   1418.51990     737.4078     437.5403   1418.51990     737.4078     437.5403
   1418.50464     738.4139     438.2296   1418.50464     738.4139     438.2296
   1418.48938     739.6643     440.0297   1418.48938     739.6643     440.0297
   1418.47412     740.9417     439.7049   1418.47412     740.9417     439.7049
   1418.45886     741.9104     440.2852   1418.45886     741.9104     440.2852
   1418.44360     741.8196     441.8324   1418.44360     741.8196     441.8324
   1418.42834     743.2669     441.6120   1418.42834     743.2669     441.6120
   1418.41309     744.1993     442.6548   1418.41309     744.1993     442.6548
   1418.39783     743.9646     443.3492   1418.39783     743.9646     443.3492
   1418.38257     744.4825     443.6122   1418.38257     744.4825     443.6122
   1418.36731     746.6640     444.5308   1418.36731     746.6640     444.5308
   1418.35205     746.7534     445.7145   1418.35205     746.7534     445.7145
   1418.33679     747.8649     445.8173   1418.33679     747.8649     445.8173
   1418.32153     748.3736     446.5865   1418.32153     748.3736     446.5865
   1418.30627     750.1915     447.7333   1418.30627     750.1915     447.7333
   1418.29102     750.3923     448.5037   1418.29102     750.3923     448.5037
   1418.27576     750.3205     447.9077   1418.27576     750.3205     447.9077
   1418.26050     752.1779     449.6937   1418.26050     752.1779     449.6937
   1418.24524     752.0912     449.9051   1418.24524     752.0912     449.9051
   1418.22998     755.1768     451.9639   1418.22998     755.1768     451.9639
   1418.21472     755.3012     452.1331   1418.21472     755.3012     452.1331
   1418.19946     755.6733     453.1406   1418.19946     755.6733     453.1406
   1418.18420     756.2362     453.4891   1418.18420     756.2362     453.4891
   1418.16895     757.4657     454.8042   1418.16895     757.4657     454.8042
   1418.15369     758.0487     455.2223   1418.15369     758.0487     455.2223
   1418.13843     760.4716     455.7449   1418.13843     760.4716     455.7449
   1418.12317     761.8787     457.2516   1418.12317     761.8787     457.2516
   1418.10791     761.8658     458.2756   1418.10791     761.8658     458.2756
   1418.09265     762.0927     458.5167   1418.09265     762.0927     458.5167
   1418.07739     762.4559     459.4174   1418.07739     762.4559     459.4174
   1418.06213     763.1222     459.3550   1418.06213     763.1222     459.3550
   1418.04688     765.1949     460.7518   1418.04688     765.1949     460.7518
   1418.03162     765.9445     462.6134   1418.03162     765.9445     462.6134
   1418.01636     766.7332     462.8545   1418.01636     766.7332     462.8545
   1418.00110     768.7722     462.8547   1418.00110     768.7722     462.8547
   1417.98584     768.0463     463.6157   1417.98584     768.0463     463.6157
   1417.97058     769.7418     465.4503   1417.97058     769.7418     465.4503
   1417.95532     769.3655     466.1026   1417.95532     769.3655     466.1026
   1417.94006     771.0876     466.9335   1417.94006     771.0876     466.9335
   1417.92480     773.2798     468.2365   1417.92480     773.2798     468.2365
   1417.90955     773.9330     469.1074   1417.90955     773.9330     469.1074
   1417.89429     773.4670     469.3369   1417.89429     773.4670     469.3369
   1417.87903     774.5980     470.5059   1417.87903     774.5980     470.5059
   1417.86377     776.8959     470.8846   1417.86377     776.8959     470.8846
   1417.84851     777.0566     472.5368   1417.84851     777.0566     472.5368
   1417.83325     778.1197     473.6533   1417.83325     778.1197     473.6533
   1417.81799     779.1974     474.0848   1417.81799     779.1974     474.0848
   1417.80273     778.4877     475.5186   1417.80273     778.4877     475.5186
   1417.78748     780.3376     475.8639   1417.78748     780.3376     475.8639
   1417.77222     782.1490     477.5014   1417.77222     782.1490     477.5014
   1417.75696     783.0779     478.3843   1417.75696     783.0779     478.3843
   1417.74170     783.9011     478.5521   1417.74170     783.9011     478.5521
   1417.72644     783.5775     479.3978   1417.72644     783.5775     479.3978
   1417.71118     786.4348     479.5638   1417.71118     786.4348     479.5638
   1417.69592     787.5318     481.0595   1417.69592     787.5318     481.0595
   1417.68066     787.2198     482.5852   1417.68066     787.2198     482.5852
   1417.66541     787.3956     483.1054   1417.66541     787.3956     483.1054
   1417.65015     788.6149     484.1903   1417.65015     788.6149     484.1903
   1417.63489     790.3207     484.0381   1417.63489     790.3207     484.0381
   1417.61963     791.3764     485.6722   1417.61963     791.3764     485.6722
   1417.60437     791.1589     486.0115   1417.60437     791.1589     486.0115
   1417.58911     792.7715     487.2450   1417.58911     792.7715     487.2450
   1417.57385     793.9482     488.7657   1417.57385     793.9482     488.7657
   1417.55859     794.3660     488.9961   1417.55859     794.3660     488.9961
   1417.54333     796.1793     491.5680   1417.54333     796.1793     491.5680
   1417.52808     796.6649     490.7138   1417.52808     796.6649     490.7138
   1417.51282     796.2944     491.6334   1417.51282     796.2944     491.6334
   1417.49756     798.2311     492.8357   1417.49756     798.2311     492.8357
   1417.48230     797.4767     493.0463   1417.48230     797.4767     493.0463
   1417.46704     800.1938     494.2129   1417.46704     800.1938     494.2129
   1417.45178     801.4094     496.4662   1417.45178     801.4094     496.4662
   1417.43652     802.3053     497.1924   1417.43652     802.3053     497.1924
   1417.42126     802.5279     496.1794   1417.42126     802.5279     496.1794
   1417.40601     802.7891     497.4128   1417.40601     802.7891     497.4128
   1417.39075     804.6407     498.1259   1417.39075     804.6407     498.1259
   1417.37549     804.1176     499.2874   1417.37549     804.1176     499.2874
   1417.36023     806.7258     501.4323   1417.36023     806.7258     501.4323
   1417.34497     805.7787     500.4073   1417.34497     805.7787     500.4073
   1417.32971     807.5319     502.4426   1417.32971     807.5319     502.4426
   1417.31445     808.2996     502.7036   1417.31445     808.2996     502.7036
   1417.29919     808.2675     503.3524   1417.29919     808.2675     503.3524
   1417.28394     809.0580     503.8873   1417.28394     809.0580     503.8873
   1417.26868     810.6135     505.6161   1417.26868     810.6135     505.6161
   1417.25342     810.8292     505.7691   1417.25342     810.8292     505.7691
   1417.23816     811.6852     506.4661   1417.23816     811.6852     506.4661
   1417.22290     813.4858     509.2469   1417.22290     813.4858     509.2469
   1417.20764     812.6497     508.2507   1417.20764     812.6497     508.2507
   1417.19238     813.5650     508.0977   1417.19238     813.5650     508.0977
   1417.17712     813.8839     509.3846   1417.17712     813.8839     509.3846
   1417.16187     815.8079     510.4323   1417.16187     815.8079     510.4323
   1417.14661     816.6022     510.5267   1417.14661     816.6022     510.5267
   1417.13135     815.4252     512.3022   1417.13135     815.4252     512.3022
   1417.11609     816.7756     511.8406   1417.11609     816.7756     511.8406
   1417.10083     818.5310     513.5968   1417.10083     818.5310     513.5968
   1417.08557     819.0137     514.0477   1417.08557     819.0137     514.0477
   1417.07031     819.9865     514.2408   1417.07031     819.9865     514.2408
   1417.05505     819.7656     514.3176   1417.05505     819.7656     514.3176
   1417.03979     819.4671     515.1315   1417.03979     819.4671     515.1315
   1417.02454     820.3616     516.1258   1417.02454     820.3616     516.1258
   1417.00928     822.1470     516.5606   1417.00928     822.1470     516.5606
   1416.99402     821.3805     517.1188   1416.99402     821.3805     517.1188
   1416.97876     822.1525     517.7377   1416.97876     822.1525     517.7377
   1416.96350     823.4406     516.8407   1416.96350     823.4406     516.8407
   1416.94824     822.9285     517.6177   1416.94824     822.9285     517.6177
   1416.93298     823.6939     518.2220   1416.93298     823.6939     518.2220
   1416.91772     825.7059     519.0852   1416.91772     825.7059     519.0852
   1416.90247     824.1565     519.6168   1416.90247     824.1565     519.6168
   1416.88721     824.3437     519.8915   1416.88721     824.3437     519.8915
   1416.87195     825.3400     519.8040   1416.87195     825.3400     519.8040
   1416.85669     826.3610     520.3393   1416.85669     826.3610     520.3393
   1416.84143     827.3470     522.1210   1416.84143     827.3470     522.1210
   1416.82617     827.3598     521.6624   1416.82617     827.3598     521.6624
   1416.81091     826.3627     522.1801   1416.81091     826.3627     522.1801
   1416.79565     828.3191     522.6837   1416.79565     828.3191     522.6837
   1416.78040     827.8621     522.9503   1416.78040     827.8621     522.9503
   1416.76514     828.4542     522.5626   1416.76514     828.4542     522.5626
   1416.74988     827.0405     521.9713   1416.74988     827.0405     521.9713
   1416.73462     828.6877     523.1508   1416.73462     828.6877     523.1508
   1416.71936     829.2203     523.4158   1416.71936     829.2203     523.4158
   1416.70410     829.4095     524.1440   1416.70410     829.4095     524.1440
   1416.68884     829.3721     523.7015   1416.68884     829.3721     523.7015
   1416.67358     830.1936     523.8472   1416.67358     830.1936     523.8472
   1416.65833     829.1711     524.4691   1416.65833     829.1711     524.4691
   1416.64307     830.0286     524.6736   1416.64307     830.0286     524.6736
   1416.62781     829.6059     524.2109   1416.62781     829.6059     524.2109
   1416.61255     830.0238     524.5992   1416.61255     830.0238     524.5992
   1416.59729     830.2780     524.9924   1416.59729     830.2780     524.9924
   1416.58203     830.3474     524.9005   1416.58203     830.3474     524.9005
   1416.56677     831.1260     524.1866   1416.56677     831.1260     524.1866
   1416.55151     829.3756     524.2701   1416.55151     829.3756     524.2701
   1416.53625     830.7570     524.8334   1416.53625     830.7570     524.8334
   1416.52100     830.8884     524.2607   1416.52100     830.8884     524.2607
   1416.50574     830.8532     525.0884   1416.50574     830.8532     525.0884
   1416.49048     829.6930     523.9534   1416.49048     829.6930     523.9534
   1416.47522     829.6102     524.0609   1416.47522     829.6102     524.0609
   1416.45996     830.7403     524.8353   1416.45996     830.7403     524.8353
   1416.44470     830.1189     524.4404   1416.44470     830.1189     524.4404
   1416.42944     829.2319     524.7996   1416.42944     829.2319     524.7996
   1416.41418     830.4771     523.4323   1416.41418     830.4771     523.4323
   1416.39893     829.1284     524.2300   1416.39893     829.1284     524.2300
   1416.38367     830.4503     523.5591   1416.38367     830.4503     523.5591
   1416.36841     829.1968     522.7827   1416.36841     829.1968     522.7827
   1416.35315     828.8198     523.4025   1416.35315     828.8198     523.4025
   1416.33789     829.2469     522.7817   1416.33789     829.2469     522.7817
   1416.32263     828.9424     522.7897   1416.32263     828.9424     522.7897
   1416.30737     829.2593     522.5399   1416.30737     829.2593     522.5399
   1416.29211     828.2973     522.5250   1416.29211     828.2973     522.5250
   1416.27686     828.1746     521.2347   1416.27686     828.1746     521.2347
   1416.26160     828.2332     521.6726   1416.26160     828.2332     521.6726
   1416.24634     827.4465     521.0689   1416.24634     827.4465     521.0689
   1416.23108     826.5823     520.7311   1416.23108     826.5823     520.7311
   1416.21582     826.3327     520.5864   1416.21582     826.3327     520.5864
   1416.20056     826.7957     521.2037   1416.20056     826.7957     521.2037
   1416.18530     827.9973     520.5587   1416.18530     827.9973     520.5587
   1416.17004     825.0983     519.2585   1416.17004     825.0983     519.2585
   1416.15479     826.0142     518.4822   1416.15479     826.0142     518.4822
   1416.13953     825.2778     518.8220   1416.13953     825.2778     518.8220
   1416.12427     825.2086     518.5256   1416.12427     825.2086     518.5256
   1416.10901     824.2652     517.8517   1416.10901     824.2652     517.8517
   1416.09375     822.9708     516.9953   1416.09375     822.9708     516.9953
   1416.07849     824.0563     517.6528   1416.07849     824.0563     517.6528
   1416.06323     824.2084     516.6642   1416.06323     824.2084     516.6642
   1416.04797     821.6127     517.0439   1416.04797     821.6127     517.0439
   1416.03271     822.4489     515.0215   1416.03271     822.4489     515.0215
   1416.01746     822.0101     515.8811   1416.01746     822.0101     515.8811
   1416.00220     821.3542     514.8665   1416.00220     821.3542     514.8665
   1415.98694     819.5333     513.2203   1415.98694     819.5333     513.2203
   1415.97168     820.3376     514.0757   1415.97168     820.3376     514.0757
   1415.95642     819.4930     513.2510   1415.95642     819.4930     513.2510
   1415.94116     819.5677     512.8965   1415.94116     819.5677     512.8965
   1415.92590     817.7460     512.3113   1415.92590     817.7460     512.3113
   1415.91064     817.1110     511.9362   1415.91064     817.1110     511.9362
   1415.89539     817.4816     511.7147   1415.89539     817.4816     511.7147
   1415.88013     815.1902     510.6317   1415.88013     815.1902     510.6317
   1415.86487     815.5555     510.5023   1415.86487     815.5555     510.5023
   1415.84961     814.9609     509.8086   1415.84961     814.9609     509.8086
   1415.83435     813.8396     509.8519   1415.83435     813.8396     509.8519
   1415.81909     814.5234     509.5773   1415.81909     814.5234     509.5773
   1415.80383     813.1786     508.2892   1415.80383     813.1786     508.2892
   1415.78857     811.5621     508.4040   1415.78857     811.5621     508.4040
   1415.77332     811.2995     506.9003   1415.77332     811.2995     506.9003
   1415.75806     809.9842     506.1046   1415.75806     809.9842     506.1046
   1415.74280     810.2913     505.7066   1415.74280     810.2913     505.7066
   1415.72754     809.0931     506.2068   1415.72754     809.0931     506.2068
   1415.71228     806.8734     504.8382   1415.71228     806.8734     504.8382
   1415.69702     805.8542     503.8767   1415.69702     805.8542     503.8767
   1415.68176     807.0187     504.0109   1415.68176     807.0187     504.0109
   1415.66650     804.1285     502.6700   1415.66650     804.1285     502.6700
   1415.65125     804.6542     501.9689   1415.65125     804.6542     501.9689
   1415.63599     803.8380     502.1731   1415.63599     803.8380     502.1731
   1415.62073     803.7666     501.6228   1415.62073     803.7666     501.6228
   1415.60547     800.1548     500.8904   1415.60547     800.1548     500.8904
   1415.59021     800.5825     500.2253   1415.59021     800.5825     500.2253
   1415.57495     800.8156     500.3496   1415.57495     800.8156     500.3496
   1415.55969     798.7225     499.8125   1415.55969     798.7225     499.8125
   1415.54443     798.1509     498.6727   1415.54443     798.1509     498.6727
   1415.52917     796.2136     497.4875   1415.52917     796.2136     497.4875
   1415.51392     795.7310     497.2925   1415.51392     795.7310     497.2925
   1415.49866     794.4786     496.9738   1415.49866     794.4786     496.9738
   1415.48340     795.4133     496.3073   1415.48340     795.4133     496.3073
   1415.46814     793.2587     495.3843   1415.46814     793.2587     495.3843
   1415.45288     792.0803     494.8641   1415.45288     792.0803     494.8641
   1415.43762     790.5205     493.9969   1415.43762     790.5205     493.9969
   1415.42236     789.7238     493.3475   1415.42236     789.7238     493.3475
   1415.40710     788.8420     492.7484   1415.40710     788.8420     492.7484
   1415.39185     787.3444     491.8671   1415.39185     787.3444     491.8671
   1415.37659     785.9669     491.3039   1415.37659     785.9669     491.3039
   1415.36133     785.0658     490.9584   1415.36133     785.0658     490.9584
   1415.34607     782.3831     489.4958   1415.34607     782.3831     489.4958
   1415.33081     782.8419     489.5243   1415.33081     782.8419     489.5243
   1415.31555     781.6993     488.5743   1415.31555     781.6993     488.5743
   1415.30029     780.1858     487.3576   1415.30029     780.1858     487.3576
   1415.28503     778.4070     487.7644   1415.28503     778.4070     487.7644
   1415.26978     777.0617     487.1762   1415.26978     777.0617     487.1762
   1415.25452     775.5686     485.8168   1415.25452     775.5686     485.8168
   1415.23926     774.5707     484.9354   1415.23926     774.5707     484.9354
   1415.22400     772.9066     484.5835   1415.22400     772.9066     484.5835
   1415.20874     771.8909     484.4565   1415.20874     771.8909     484.4565
   1415.19348     772.4265     482.6515   1415.19348     772.4265     482.6515
   1415.17822     770.6433     482.0542   1415.17822     770.6433     482.0542
   1415.16296     767.1193     481.0205   1415.16296     767.1193     481.0205
   1415.14771     765.6028     480.9066   1415.14771     765.6028     480.9066
   1415.13245     764.4580     479.2716   1415.13245     764.4580     479.2716
   1415.11719     762.9743     478.9571   1415.11719     762.9743     478.9571
   1415.10193     761.5997     478.0921   1415.10193     761.5997     478.0921
   1415.08667     759.7938     476.9863   1415.08667     759.7938     476.9863
   1415.07141     758.4283     475.9532   1415.07141     758.4283     475.9532
   1415.05615     756.5196     476.0082   1415.05615     756.5196     476.0082
   1415.04089     755.8248     475.1463   1415.04089     755.8248     475.1463
   1415.02563     752.9089     474.4247   1415.02563     752.9089     474.4247
   1415.01038     751.8223     472.9883   1415.01038     751.8223     472.9883
   1414.99512     750.0068     472.2382   1414.99512     750.0068     472.2382
   1414.97986     749.1552     471.0404   1414.97986     749.1552     471.0404
   1414.96460     747.0111     470.3379   1414.96460     747.0111     470.3379
   1414.94934     745.9212     468.9901   1414.94934     745.9212     468.9901
   1414.93408     743.6221     468.9587   1414.93408     743.6221     468.9587
   1414.91882     742.1777     467.6466   1414.91882     742.1777     467.6466
   1414.90356     740.1956     466.5201   1414.90356     740.1956     466.5201
   1414.88831     738.2891     465.9460   1414.88831     738.2891     465.9460
   1414.87305     736.5709     464.6060   1414.87305     736.5709     464.6060
   1414.85779     735.7854     463.7071   1414.85779     735.7854     463.7071
   1414.84253     733.2187     463.0551   1414.84253     733.2187     463.0551
   1414.82727     731.9095     461.2691   1414.82727     731.9095     461.2691
   1414.81201     729.9164     461.5390   1414.81201     729.9164     461.5390
   1414.79675     726.1892     459.8267   1414.79675     726.1892     459.8267
   1414.78149     725.3051     458.6259   1414.78149     725.3051     458.6259
   1414.76624     723.7447     458.2798   1414.76624     723.7447     458.2798
   1414.75098     720.7388     456.6978   1414.75098     720.7388     456.6978
   1414.73572     719.3341     455.7437   1414.73572     719.3341     455.7437
   1414.72046     717.3249     455.1306   1414.72046     717.3249     455.1306
   1414.70520     714.6874     452.8786   1414.70520     714.6874     452.8786
   1414.68994     712.5084     451.8147   1414.68994     712.5084     451.8147
   1414.67468     710.9556     451.6608   1414.67468     710.9556     451.6608
   1414.65942     708.1571     450.6222   1414.65942     708.1571     450.6222
   1414.64417     706.6493     449.6020   1414.64417     706.6493     449.6020
   1414.62891     703.6808     448.5356   1414.62891     703.6808     448.5356
   1414.61365     702.6780     447.3416   1414.61365     702.6780     447.3416
   1414.59839     699.0687     445.7741   1414.59839     699.0687     445.7741
   1414.58313     697.1027     445.4574   1414.58313     697.1027     445.4574
   1414.56787     696.2379     443.5845   1414.56787     696.2379     443.5845
   1414.55261     693.6669     442.9461   1414.55261     693.6669     442.9461
   1414.53735     690.7067     441.5422   1414.53735     690.7067     441.5422
   1414.52209     688.5231     440.5012   1414.52209     688.5231     440.5012
   1414.50684     686.7142     439.0110   1414.50684     686.7142     439.0110
   1414.49158     683.8585     438.0133   1414.49158     683.8585     438.0133
   1414.47632     681.4875     436.4606   1414.47632     681.4875     436.4606
   1414.46106     678.9179     435.7853   1414.46106     678.9179     435.7853
   1414.44580     675.6903     434.2585   1414.44580     675.6903     434.2585
   1414.43054     674.8739     433.1244   1414.43054     674.8739     433.1244
   1414.41528     672.5817     431.7889   1414.41528     672.5817     431.7889
   1414.40002     668.8248     429.7816   1414.40002     668.8248     429.7816
   1414.38477     666.3408     428.8601   1414.38477     666.3408     428.8601
   1414.36951     664.4484     428.2720   1414.36951     664.4484     428.2720
   1414.35425     661.7609     426.5197   1414.35425     661.7609     426.5197
   1414.33899     659.3109     425.6464   1414.33899     659.3109     425.6464
   1414.32373     656.7490     423.7828   1414.32373     656.7490     423.7828
   1414.30847     654.2185     423.3641   1414.30847     654.2185     423.3641
   1414.29321     651.8913     420.9060   1414.29321     651.8913     420.9060
   1414.27795     647.8251     420.5561   1414.27795     647.8251     420.5561
   1414.26270     645.8605     418.4656   1414.26270     645.8605     418.4656
   1414.24744     642.3719     417.3911   1414.24744     642.3719     417.3911
   1414.23218     639.7281     416.1737   1414.23218     639.7281     416.1737
   1414.21692     638.8589     414.3565   1414.21692     638.8589     414.3565
   1414.20166     635.0821     413.2159   1414.20166     635.0821     413.2159
   1414.18640     632.9556     411.4843   1414.18640     632.9556     411.4843
   1414.17114     629.2849     411.1385   1414.17114     629.2849     411.1385
   1414.15588     625.9570     409.3796   1414.15588     625.9570     409.3796
   1414.14062     624.1479     408.0841   1414.14062     624.1479     408.0841
   1414.12537     621.7405     405.9113   1414.12537     621.7405     405.9113
   1414.11011     618.7426     404.5918   1414.11011     618.7426     404.5918
   1414.09485     614.8176     402.9863   1414.09485     614.8176     402.9863
   1414.07959     612.4485     401.2249   1414.07959     612.4485     401.2249
   1414.06433     609.0807     400.0931   1414.06433     609.0807     400.0931
   1414.04907     606.6136     399.0515   1414.04907     606.6136     399.0515
   1414.03381     604.3237     397.3345   1414.03381     604.3237     397.3345
   1414.01855     600.6409     396.2872   1414.01855     600.6409     396.2872
   1414.00330     616.3625     398.8609   1414.00330     616.3625     398.8609
   1413.98804     596.5126     393.1141   1413.98804     596.5126     393.1141
   1413.97278     592.6100     392.2148   1413.97278     592.6100     392.2148
   1413.95752     590.1387     389.6052   1413.95752     590.1387     389.6052
   1413.94226     586.0251     388.0582   1413.94226     586.0251     388.0582
   1413.92700     583.8693     386.8293   1413.92700     583.8693     386.8293
   1413.91174     580.1890     385.4955   1413.91174     580.1890     385.4955
   1413.89648     577.0782     383.8756   1413.89648     577.0782     383.8756
   1413.88123     575.0729     382.5161   1413.88123     575.0729     382.5161
   1413.86597     571.1992     380.7965   1413.86597     571.1992     380.7965
   1413.85071     568.1159     379.5576   1413.85071     568.1159     379.5576
   1413.83545     565.7546     377.7434   1413.83545     565.7546     377.7434
   1413.82019     562.7080     376.4109   1413.82019     562.7080     376.4109
   1413.80493     559.7546     374.4766   1413.80493     559.7546     374.4766
   1413.78967     556.3056     373.3895   1413.78967     556.3056     373.3895
   1413.77441     553.4917     371.3773   1413.77441     553.4917     371.3773
   1413.75916     550.8770     370.4019   1413.75916     550.8770     370.4019
   1413.74390     547.1346     368.3563   1413.74390     547.1346     368.3563
   1413.72864     544.2314     367.0121   1413.72864     544.2314     367.0121
   1413.71338     541.1838     365.5911   1413.71338     541.1838     365.5911
   1413.69812     538.2366     363.8117   1413.69812     538.2366     363.8117
   1413.68286     535.2559     362.2713   1413.68286     535.2559     362.2713
   1413.66760     531.6553     361.1328   1413.66760     531.6553     361.1328
   1413.65234     527.9326     359.4336   1413.65234     527.9326     359.4336
   1413.63708     526.1080     357.9337   1413.63708     526.1080     357.9337
   1413.62183     522.7906     355.7427   1413.62183     522.7906     355.7427
   1413.60657     520.5837     354.3532   1413.60657     520.5837     354.3532
   1413.59131     517.4398     353.0016   1413.59131     517.4398     353.0016
   1413.57605     514.4204     351.8184   1413.57605     514.4204     351.8184
   1413.56079     510.4721     350.4040   1413.56079     510.4721     350.4040
   1413.54553     508.9781     348.3431   1413.54553     508.9781     348.3431
   1413.53027     504.6455     346.7417   1413.53027     504.6455     346.7417
   1413.51501     502.0433     345.1544   1413.51501     502.0433     345.1544
   1413.49976     499.5419     343.8901   1413.49976     499.5419     343.8901
   1413.48450     496.1364     342.1486   1413.48450     496.1364     342.1486
   1413.46924     493.6245     340.7918   1413.46924     493.6245     340.7918
   1413.45398     490.0151     338.6468   1413.45398     490.0151     338.6468
   1413.43872     488.2102     338.4580   1413.43872     488.2102     338.4580
   1413.42346     485.0450     336.8410   1413.42346     485.0450     336.8410
   1413.40820     482.0969     335.0061   1413.40820     482.0969     335.0061
   1413.39294     478.3563     333.6783   1413.39294     478.3563     333.6783
   1413.37769     477.2714     331.9969   1413.37769     477.2714     331.9969
   1413.36243     473.5695     330.7407   1413.36243     473.5695     330.7407
   1413.34717     470.2746     329.0337   1413.34717     470.2746     329.0337
   1413.33191     467.4508     327.7481   1413.33191     467.4508     327.7481
   1413.31665     464.8092     326.5118   1413.31665     464.8092     326.5118
   1413.30139     461.8297     324.6657   1413.30139     461.8297     324.6657
   1413.28613     459.5948     323.5972   1413.28613     459.5948     323.5972
   1413.27087     457.1222     322.3568   1413.27087     457.1222     322.3568
   1413.25562     454.2925     320.6020   1413.25562     454.2925     320.6020
   1413.24036     451.5138     319.7673   1413.24036     451.5138     319.7673
   1413.22510     448.8593     318.1014   1413.22510     448.8593     318.1014
   1413.20984     445.9776     317.4407   1413.20984     445.9776     317.4407
   1413.19458     443.4076     315.6362   1413.19458     443.4076     315.6362
   1413.17932     440.8798     314.3050   1413.17932     440.8798     314.3050
   1413.16406     438.8747     313.2774   1413.16406     438.8747     313.2774
   1413.14880     435.9789     311.8047   1413.14880     435.9789     311.8047
   1413.13354     433.6760     310.9875   1413.13354     433.6760     310.9875
   1413.11829     430.7507     309.3673   1413.11829     430.7507     309.3673
   1413.10303     428.9535     308.5827   1413.10303     428.9535     308.5827
   1413.08777     426.4171     306.8149   1413.08777     426.4171     306.8149
   1413.07251     424.8695     305.5477   1413.07251     424.8695     305.5477
   1413.05725     421.4424     304.5294   1413.05725     421.4424     304.5294
   1413.04199     419.8336     303.4625   1413.04199     419.8336     303.4625
   1413.02673     417.9953     302.1561   1413.02673     417.9953     302.1561
   1413.01147     416.1332     300.8564   1413.01147     416.1332     300.8564
   1412.99622     413.5001     299.9399   1412.99622     413.5001     299.9399
   1412.98096     411.1818     299.2072   1412.98096     411.1818     299.2072
   1412.96570     409.1931     297.9706   1412.96570     409.1931     297.9706
   1412.95044     407.1873     297.2190   1412.95044     407.1873     297.2190
   1412.93518     404.9164     296.2312   1412.93518     404.9164     296.2312
   1412.91992     403.1860     294.6561   1412.91992     403.1860     294.6561
   1412.90466     401.3976     294.2863   1412.90466     401.3976     294.2863
   1412.88940     399.4156     293.8382   1412.88940     399.4156     293.8382
   1412.87415     397.5005     292.6369   1412.87415     397.5005     292.6369
   1412.85889     395.9066     291.7533   1412.85889     395.9066     291.7533
   1412.84363     393.8019     290.9600   1412.84363     393.8019     290.9600
   1412.82837     392.7502     290.0881   1412.82837     392.7502     290.0881
   1412.81311     391.0430     289.1664   1412.81311     391.0430     289.1664
   1412.79785     389.5070     288.8312   1412.79785     389.5070     288.8312
   1412.78259     387.4141     288.0135   1412.78259     387.4141     288.0135
   1412.76733     386.5098     287.4030   1412.76733     386.5098     287.4030
   1412.75208     385.0003     286.6797   1412.75208     385.0003     286.6797
   1412.73682     383.9258     285.6971   1412.73682     383.9258     285.6971
   1412.72156     382.6921     285.7138   1412.72156     382.6921     285.7138
   1412.70630     381.0839     285.0824   1412.70630     381.0839     285.0824
   1412.69104     379.4828     284.5775   1412.69104     379.4828     284.5775
   1412.67578     378.2949     283.7585   1412.67578     378.2949     283.7585
   1412.66052     377.6664     283.2416   1412.66052     377.6664     283.2416
   1412.64526     375.4788     283.0768   1412.64526     375.4788     283.0768
   1412.63000     375.3057     283.0009   1412.63000     375.3057     283.0009
   1412.61475     374.2623     282.2939   1412.61475     374.2623     282.2939
   1412.59949     373.2221     282.4688   1412.59949     373.2221     282.4688
   1412.58423     372.6956     282.0643   1412.58423     372.6956     282.0643
   1412.56897     371.7776     281.2581   1412.56897     371.7776     281.2581
   1412.55371     370.3724     281.3521   1412.55371     370.3724     281.3521
   1412.53845     370.5197     280.9934   1412.53845     370.5197     280.9934
   1412.52319     369.9446     281.1349   1412.52319     369.9446     281.1349
   1412.50793     369.1691     280.6812   1412.50793     369.1691     280.6812
   1412.49268     368.8363     280.6027   1412.49268     368.8363     280.6027
   1412.47742     368.2346     280.8893   1412.47742     368.2346     280.8893
   1412.46216     367.0918     280.7870   1412.46216     367.0918     280.7870
   1412.44690     367.0731     281.2112   1412.44690     367.0731     281.2112
   1412.43164     366.9026     280.6958   1412.43164     366.9026     280.6958
   1412.41638     367.1727     281.1520   1412.41638     367.1727     281.1520
   1412.40112     366.9480     280.8759   1412.40112     366.9480     280.8759
   1412.38586     365.5739     281.7867   1412.38586     365.5739     281.7867
   1412.37061     366.7234     281.6060   1412.37061     366.7234     281.6060
   1412.35535     367.5448     281.6556   1412.35535     367.5448     281.6556
   1412.34009     365.7573     282.6668   1412.34009     365.7573     282.6668
   1412.32483     366.8978     282.6183   1412.32483     366.8978     282.6183
   1412.30957     366.8766     283.1694   1412.30957     366.8766     283.1694
   1412.29431     366.2994     283.7812   1412.29431     366.2994     283.7812
   1412.27905     366.9973     284.0775   1412.27905     366.9973     284.0775
   1412.26379     367.5296     284.3181   1412.26379     367.5296     284.3181
   1412.24854     368.0160     284.8887   1412.24854     368.0160     284.8887
   1412.23328     368.4897     285.6966   1412.23328     368.4897     285.6966
   1412.21802     368.4229     285.8014   1412.21802     368.4229     285.8014
   1412.20276     369.9864     286.7527   1412.20276     369.9864     286.7527