#     FILENAME=!Skynet_57528_lach-hhg-139_20458_20963.cyb.fits
#     BASENAME=Skynet_57528_lach-hhg-139_20458_20963
#     SRC_NAME=lach-hhg-139
#     OBSERVER=hhgmadison16_9500
#     DATE_OBS=2016-05-20T17:15:32.370
#        OBSID=20458
#      SCANNUM=20963
#          MJD=57528.7202
#          UTC=62221
#     SCANTYPE=track
#     DATAMODE=HIRES
#     TUNEFREQ=1420.0000
# Actual_FREQ1=1420.0000
# Actual_FREQ2=1420.0000
#    LO1Tuning=6870.000
#     RFFILTER=1355_1435
#        OBSBW=-15.6250
#        NCHAN=1024 
#        FOCUS=37.0709
#           RA=03:00:33.02
#          DEC=58:47:01.53
#      RA(hrs)=3.009200
#     DEC(deg)=58.783800
#    AZIM(deg)=342.181
#    ELEV(deg)=68.000
#     IFattens=11.00, 10.00
#      WARNING=None
#    TCAL_XL1=7.9635
#    TCAL_YR1=9.1340
#    TCAL_XL2=7.9635
#    TCAL_YR2=9.1340
#     TRX_XL1=11.7060
#     TRX_YR1=11.7060
#     TRX_XL2=11.7060
#     TRX_YR2=11.7060
#        TAVE=1.0000
#Freq1(MHz)          XL1          YR1  Freq2(MHz)          XL2          YR2 

   1427.81250     301.2143     248.9699   1427.81250     301.2143     248.9699
   1427.79724     301.4239     249.8542   1427.79724     301.4239     249.8542
   1427.78198     301.8213     250.5803   1427.78198     301.8213     250.5803
   1427.76672     302.8390     252.1566   1427.76672     302.8390     252.1566
   1427.75146     303.5158     252.8016   1427.75146     303.5158     252.8016
   1427.73621     303.6171     253.9046   1427.73621     303.6171     253.9046
   1427.72095     304.9966     255.0746   1427.72095     304.9966     255.0746
   1427.70569     305.3952     256.1081   1427.70569     305.3952     256.1081
   1427.69043     306.4334     256.9819   1427.69043     306.4334     256.9819
   1427.67517     306.8427     258.6664   1427.67517     306.8427     258.6664
   1427.65991     308.1399     259.5345   1427.65991     308.1399     259.5345
   1427.64465     309.2161     260.9292   1427.64465     309.2161     260.9292
   1427.62939     310.2664     262.3082   1427.62939     310.2664     262.3082
   1427.61414     310.9888     263.5552   1427.61414     310.9888     263.5552
   1427.59888     312.4023     265.0009   1427.59888     312.4023     265.0009
   1427.58362     313.5299     266.6982   1427.58362     313.5299     266.6982
   1427.56836     313.7366     267.5909   1427.56836     313.7366     267.5909
   1427.55310     315.4555     269.2885   1427.55310     315.4555     269.2885
   1427.53784     317.4352     270.7100   1427.53784     317.4352     270.7100
   1427.52258     318.2715     271.6165   1427.52258     318.2715     271.6165
   1427.50732     319.3486     273.6947   1427.50732     319.3486     273.6947
   1427.49207     320.7537     275.5015   1427.49207     320.7537     275.5015
   1427.47681     322.3428     277.2440   1427.47681     322.3428     277.2440
   1427.46155     324.0085     278.7043   1427.46155     324.0085     278.7043
   1427.44629     325.3137     280.1767   1427.44629     325.3137     280.1767
   1427.43103     326.9961     282.0543   1427.43103     326.9961     282.0543
   1427.41577     328.4177     283.2435   1427.41577     328.4177     283.2435
   1427.40051     329.9131     285.0208   1427.40051     329.9131     285.0208
   1427.38525     331.3956     286.5706   1427.38525     331.3956     286.5706
   1427.37000     333.0641     288.8000   1427.37000     333.0641     288.8000
   1427.35474     335.2597     290.4828   1427.35474     335.2597     290.4828
   1427.33948     336.3312     291.9758   1427.33948     336.3312     291.9758
   1427.32422     337.8076     294.1348   1427.32422     337.8076     294.1348
   1427.30896     340.0569     295.7212   1427.30896     340.0569     295.7212
   1427.29370     342.2508     298.4185   1427.29370     342.2508     298.4185
   1427.27844     344.1511     299.8955   1427.27844     344.1511     299.8955
   1427.26318     345.4137     301.5790   1427.26318     345.4137     301.5790
   1427.24792     347.3708     303.1233   1427.24792     347.3708     303.1233
   1427.23267     349.7225     305.4928   1427.23267     349.7225     305.4928
   1427.21741     351.2541     307.3169   1427.21741     351.2541     307.3169
   1427.20215     353.6317     309.5006   1427.20215     353.6317     309.5006
   1427.18689     355.4575     311.1138   1427.18689     355.4575     311.1138
   1427.17163     357.4985     313.3081   1427.17163     357.4985     313.3081
   1427.15637     360.0994     314.8702   1427.15637     360.0994     314.8702
   1427.14111     361.6000     317.2014   1427.14111     361.6000     317.2014
   1427.12585     364.5998     319.0652   1427.12585     364.5998     319.0652
   1427.11060     366.1587     321.3773   1427.11060     366.1587     321.3773
   1427.09534     368.5788     323.7427   1427.09534     368.5788     323.7427
   1427.08008     371.3384     325.3702   1427.08008     371.3384     325.3702
   1427.06482     373.2789     327.4190   1427.06482     373.2789     327.4190
   1427.04956     374.9308     329.7947   1427.04956     374.9308     329.7947
   1427.03430     377.4427     331.3033   1427.03430     377.4427     331.3033
   1427.01904     380.0388     333.6848   1427.01904     380.0388     333.6848
   1427.00378     382.7411     336.0166   1427.00378     382.7411     336.0166
   1426.98853     385.0224     337.0434   1426.98853     385.0224     337.0434
   1426.97327     387.4094     339.9744   1426.97327     387.4094     339.9744
   1426.95801     388.6767     341.3969   1426.95801     388.6767     341.3969
   1426.94275     391.8320     343.6722   1426.94275     391.8320     343.6722
   1426.92749     394.6502     345.4493   1426.92749     394.6502     345.4493
   1426.91223     396.9690     348.3747   1426.91223     396.9690     348.3747
   1426.89697     398.2831     350.0009   1426.89697     398.2831     350.0009
   1426.88171     401.3880     352.1219   1426.88171     401.3880     352.1219
   1426.86646     403.8904     354.4315   1426.86646     403.8904     354.4315
   1426.85120     406.7406     355.8719   1426.85120     406.7406     355.8719
   1426.83594     408.7057     358.2025   1426.83594     408.7057     358.2025
   1426.82068     411.8609     360.3743   1426.82068     411.8609     360.3743
   1426.80542     414.0156     361.9816   1426.80542     414.0156     361.9816
   1426.79016     416.5562     364.6715   1426.79016     416.5562     364.6715
   1426.77490     418.6950     366.2060   1426.77490     418.6950     366.2060
   1426.75964     420.9143     368.2665   1426.75964     420.9143     368.2665
   1426.74438     423.6733     370.1651   1426.74438     423.6733     370.1651
   1426.72913     426.6631     371.7924   1426.72913     426.6631     371.7924
   1426.71387     429.1310     374.0038   1426.71387     429.1310     374.0038
   1426.69861     431.6838     376.2253   1426.69861     431.6838     376.2253
   1426.68335     434.3312     378.7858   1426.68335     434.3312     378.7858
   1426.66809     437.3396     380.5363   1426.66809     437.3396     380.5363
   1426.65283     439.3290     382.1368   1426.65283     439.3290     382.1368
   1426.63757     442.0121     384.1276   1426.63757     442.0121     384.1276
   1426.62231     444.4056     386.8838   1426.62231     444.4056     386.8838
   1426.60706     447.5926     387.8006   1426.60706     447.5926     387.8006
   1426.59180     449.6464     389.9731   1426.59180     449.6464     389.9731
   1426.57654     452.2650     391.6293   1426.57654     452.2650     391.6293
   1426.56128     455.2881     394.1051   1426.56128     455.2881     394.1051
   1426.54602     457.4670     395.5302   1426.54602     457.4670     395.5302
   1426.53076     460.1182     397.0985   1426.53076     460.1182     397.0985
   1426.51550     461.9852     398.8719   1426.51550     461.9852     398.8719
   1426.50024     465.2317     400.9796   1426.50024     465.2317     400.9796
   1426.48499     467.7420     402.7065   1426.48499     467.7420     402.7065
   1426.46973     471.3578     404.5210   1426.46973     471.3578     404.5210
   1426.45447     472.6812     406.2111   1426.45447     472.6812     406.2111
   1426.43921     474.9237     408.6422   1426.43921     474.9237     408.6422
   1426.42395     477.7007     409.8301   1426.42395     477.7007     409.8301
   1426.40869     480.1624     411.6327   1426.40869     480.1624     411.6327
   1426.39343     482.3774     413.4475   1426.39343     482.3774     413.4475
   1426.37817     485.4288     415.5314   1426.37817     485.4288     415.5314
   1426.36292     487.7739     416.6590   1426.36292     487.7739     416.6590
   1426.34766     490.5445     419.1693   1426.34766     490.5445     419.1693
   1426.33240     492.0377     420.5779   1426.33240     492.0377     420.5779
   1426.31714     495.5915     421.9957   1426.31714     495.5915     421.9957
   1426.30188     496.6933     422.4323   1426.30188     496.6933     422.4323
   1426.28662     499.9645     424.7552   1426.28662     499.9645     424.7552
   1426.27136     502.3547     426.0244   1426.27136     502.3547     426.0244
   1426.25610     504.6313     427.7412   1426.25610     504.6313     427.7412
   1426.24084     506.6264     429.9569   1426.24084     506.6264     429.9569
   1426.22559     510.0145     431.7709   1426.22559     510.0145     431.7709
   1426.21033     511.9151     432.8698   1426.21033     511.9151     432.8698
   1426.19507     513.6491     433.2196   1426.19507     513.6491     433.2196
   1426.17981     516.4153     435.6778   1426.17981     516.4153     435.6778
   1426.16455     518.2294     437.1266   1426.16455     518.2294     437.1266
   1426.14929     520.6039     438.3417   1426.14929     520.6039     438.3417
   1426.13403     523.5924     439.7805   1426.13403     523.5924     439.7805
   1426.11877     524.8818     440.9343   1426.11877     524.8818     440.9343
   1426.10352     527.9451     442.7107   1426.10352     527.9451     442.7107
   1426.08826     529.2986     443.9021   1426.08826     529.2986     443.9021
   1426.07300     531.2503     445.0705   1426.07300     531.2503     445.0705
   1426.05774     534.2421     446.4141   1426.05774     534.2421     446.4141
   1426.04248     535.7023     446.8544   1426.04248     535.7023     446.8544
   1426.02722     537.9174     449.7295   1426.02722     537.9174     449.7295
   1426.01196     540.9434     450.2540   1426.01196     540.9434     450.2540
   1425.99670     542.4056     450.7961   1425.99670     542.4056     450.7961
   1425.98145     545.0871     453.3133   1425.98145     545.0871     453.3133
   1425.96619     545.5944     453.7078   1425.96619     545.5944     453.7078
   1425.95093     547.5023     454.6189   1425.95093     547.5023     454.6189
   1425.93567     550.3275     456.0237   1425.93567     550.3275     456.0237
   1425.92041     552.3845     457.7294   1425.92041     552.3845     457.7294
   1425.90515     553.4484     459.0373   1425.90515     553.4484     459.0373
   1425.88989     555.3500     460.0341   1425.88989     555.3500     460.0341
   1425.87463     558.2134     461.4350   1425.87463     558.2134     461.4350
   1425.85938     559.7337     461.6470   1425.85938     559.7337     461.6470
   1425.84412     562.3221     462.8566   1425.84412     562.3221     462.8566
   1425.82886     562.8040     463.7015   1425.82886     562.8040     463.7015
   1425.81360     565.4510     464.7813   1425.81360     565.4510     464.7813
   1425.79834     567.7009     465.8040   1425.79834     567.7009     465.8040
   1425.78308     569.0104     467.2062   1425.78308     569.0104     467.2062
   1425.76782     569.8286     467.8745   1425.76782     569.8286     467.8745
   1425.75256     571.9957     468.6352   1425.75256     571.9957     468.6352
   1425.73730     573.2163     469.6243   1425.73730     573.2163     469.6243
   1425.72205     575.3458     469.8757   1425.72205     575.3458     469.8757
   1425.70679     576.8093     472.1734   1425.70679     576.8093     472.1734
   1425.69153     577.6115     472.2968   1425.69153     577.6115     472.2968
   1425.67627     580.7438     473.5674   1425.67627     580.7438     473.5674
   1425.66101     580.7452     474.2151   1425.66101     580.7452     474.2151
   1425.64575     583.2197     474.2679   1425.64575     583.2197     474.2679
   1425.63049     583.6801     475.7972   1425.63049     583.6801     475.7972
   1425.61523     585.2954     477.1438   1425.61523     585.2954     477.1438
   1425.59998     587.6766     477.4548   1425.59998     587.6766     477.4548
   1425.58472     588.3336     478.1517   1425.58472     588.3336     478.1517
   1425.56946     589.1575     478.9057   1425.56946     589.1575     478.9057
   1425.55420     591.4894     480.2538   1425.55420     591.4894     480.2538
   1425.53894     592.2727     479.8621   1425.53894     592.2727     479.8621
   1425.52368     593.3523     481.1133   1425.52368     593.3523     481.1133
   1425.50842     593.8623     481.5388   1425.50842     593.8623     481.5388
   1425.49316     595.3700     481.6017   1425.49316     595.3700     481.6017
   1425.47791     596.4026     483.2224   1425.47791     596.4026     483.2224
   1425.46265     599.0504     482.7054   1425.46265     599.0504     482.7054
   1425.44739     598.9785     484.0798   1425.44739     598.9785     484.0798
   1425.43213     600.9868     485.1024   1425.43213     600.9868     485.1024
   1425.41687     601.9305     485.7715   1425.41687     601.9305     485.7715
   1425.40161     603.4263     486.7058   1425.40161     603.4263     486.7058
   1425.38635     603.9988     486.7612   1425.38635     603.9988     486.7612
   1425.37109     604.5729     488.0721   1425.37109     604.5729     488.0721
   1425.35583     605.0421     487.4861   1425.35583     605.0421     487.4861
   1425.34058     606.1446     488.5563   1425.34058     606.1446     488.5563
   1425.32532     606.9767     489.5180   1425.32532     606.9767     489.5180
   1425.31006     608.3839     489.8780   1425.31006     608.3839     489.8780
   1425.29480     610.0660     490.1835   1425.29480     610.0660     490.1835
   1425.27954     608.9442     490.6959   1425.27954     608.9442     490.6959
   1425.26428     610.8970     490.3402   1425.26428     610.8970     490.3402
   1425.24902     610.6890     491.4193   1425.24902     610.6890     491.4193
   1425.23376     612.8105     491.8934   1425.23376     612.8105     491.8934
   1425.21851     613.1988     492.6089   1425.21851     613.1988     492.6089
   1425.20325     614.4747     493.8314   1425.20325     614.4747     493.8314
   1425.18799     614.7226     492.8299   1425.18799     614.7226     492.8299
   1425.17273     614.7579     494.0677   1425.17273     614.7579     494.0677
   1425.15747     615.3578     493.6961   1425.15747     615.3578     493.6961
   1425.14221     616.6735     494.4711   1425.14221     616.6735     494.4711
   1425.12695     617.7292     495.8770   1425.12695     617.7292     495.8770
   1425.11169     616.8228     495.5827   1425.11169     616.8228     495.5827
   1425.09644     618.6498     495.5569   1425.09644     618.6498     495.5569
   1425.08118     618.0902     495.6723   1425.08118     618.0902     495.6723
   1425.06592     618.2077     495.4091   1425.06592     618.2077     495.4091
   1425.05066     619.8307     496.9480   1425.05066     619.8307     496.9480
   1425.03540     620.2974     496.5123   1425.03540     620.2974     496.5123
   1425.02014     620.2086     498.1205   1425.02014     620.2086     498.1205
   1425.00488     621.1120     497.7446   1425.00488     621.1120     497.7446
   1424.98962     621.8131     498.5254   1424.98962     621.8131     498.5254
   1424.97437     621.3537     498.2330   1424.97437     621.3537     498.2330
   1424.95911     622.2972     497.9262   1424.95911     622.2972     497.9262
   1424.94385     622.2917     498.8951   1424.94385     622.2917     498.8951
   1424.92859     622.3663     499.4014   1424.92859     622.3663     499.4014
   1424.91333     623.0328     500.4207   1424.91333     623.0328     500.4207
   1424.89807     622.4903     500.0403   1424.89807     622.4903     500.0403
   1424.88281     623.4445     499.8131   1424.88281     623.4445     499.8131
   1424.86755     623.5555     500.0018   1424.86755     623.5555     500.0018
   1424.85229     624.0791     500.3077   1424.85229     624.0791     500.3077
   1424.83704     623.4232     500.2509   1424.83704     623.4232     500.2509
   1424.82178     623.8708     501.0862   1424.82178     623.8708     501.0862
   1424.80652     623.7692     501.3096   1424.80652     623.7692     501.3096
   1424.79126     623.9777     501.5114   1424.79126     623.9777     501.5114
   1424.77600     624.2820     502.0748   1424.77600     624.2820     502.0748
   1424.76074     624.1411     501.6292   1424.76074     624.1411     501.6292
   1424.74548     623.7349     501.4387   1424.74548     623.7349     501.4387
   1424.73022     625.4316     502.0248   1424.73022     625.4316     502.0248
   1424.71497     624.5391     501.8859   1424.71497     624.5391     501.8859
   1424.69971     624.5569     502.1718   1424.69971     624.5569     502.1718
   1424.68445     624.7262     502.7429   1424.68445     624.7262     502.7429
   1424.66919     623.9550     502.5562   1424.66919     623.9550     502.5562
   1424.65393     623.7150     503.1694   1424.65393     623.7150     503.1694
   1424.63867     624.1467     502.8945   1424.63867     624.1467     502.8945
   1424.62341     624.3090     503.0056   1424.62341     624.3090     503.0056
   1424.60815     624.2147     502.5406   1424.60815     624.2147     502.5406
   1424.59290     623.8119     503.0149   1424.59290     623.8119     503.0149
   1424.57764     623.5988     503.1468   1424.57764     623.5988     503.1468
   1424.56238     623.9989     503.3340   1424.56238     623.9989     503.3340
   1424.54712     623.8654     503.6560   1424.54712     623.8654     503.6560
   1424.53186     624.4547     503.4124   1424.53186     624.4547     503.4124
   1424.51660     622.3260     503.4411   1424.51660     622.3260     503.4411
   1424.50134     622.7736     504.7456   1424.50134     622.7736     504.7456
   1424.48608     623.8276     503.3956   1424.48608     623.8276     503.3956
   1424.47083     622.9062     503.0584   1424.47083     622.9062     503.0584
   1424.45557     622.7143     503.9080   1424.45557     622.7143     503.9080
   1424.44031     622.6035     503.8990   1424.44031     622.6035     503.8990
   1424.42505     621.7750     504.0798   1424.42505     621.7750     504.0798
   1424.40979     622.3265     504.3719   1424.40979     622.3265     504.3719
   1424.39453     621.5413     504.1596   1424.39453     621.5413     504.1596
   1424.37927     620.9912     504.2889   1424.37927     620.9912     504.2889
   1424.36401     621.5551     503.5830   1424.36401     621.5551     503.5830
   1424.34875     621.4830     504.5904   1424.34875     621.4830     504.5904
   1424.33350     620.4819     504.7417   1424.33350     620.4819     504.7417
   1424.31824     621.1532     504.3194   1424.31824     621.1532     504.3194
   1424.30298     621.2363     503.5703   1424.30298     621.2363     503.5703
   1424.28772     619.4235     504.1692   1424.28772     619.4235     504.1692
   1424.27246     620.0017     504.5219   1424.27246     620.0017     504.5219
   1424.25720     619.6811     504.0285   1424.25720     619.6811     504.0285
   1424.24194     619.2382     504.4859   1424.24194     619.2382     504.4859
   1424.22668     618.1472     504.0867   1424.22668     618.1472     504.0867
   1424.21143     618.3281     504.2303   1424.21143     618.3281     504.2303
   1424.19617     617.2384     503.9330   1424.19617     617.2384     503.9330
   1424.18091     617.7277     503.8130   1424.18091     617.7277     503.8130
   1424.16565     616.8895     504.0527   1424.16565     616.8895     504.0527
   1424.15039     616.2205     503.8050   1424.15039     616.2205     503.8050
   1424.13513     617.4837     504.4222   1424.13513     617.4837     504.4222
   1424.11987     615.4481     504.3760   1424.11987     615.4481     504.3760
   1424.10461     616.1152     503.4797   1424.10461     616.1152     503.4797
   1424.08936     615.6991     503.7453   1424.08936     615.6991     503.7453
   1424.07410     614.6611     503.3845   1424.07410     614.6611     503.3845
   1424.05884     616.0680     503.9737   1424.05884     616.0680     503.9737
   1424.04358     614.6921     503.1832   1424.04358     614.6921     503.1832
   1424.02832     613.1828     503.2672   1424.02832     613.1828     503.2672
   1424.01306     613.4113     502.0673   1424.01306     613.4113     502.0673
   1423.99780     613.2680     503.1512   1423.99780     613.2680     503.1512
   1423.98254     612.2451     502.3536   1423.98254     612.2451     502.3536
   1423.96729     612.8514     502.1703   1423.96729     612.8514     502.1703
   1423.95203     611.6888     502.8205   1423.95203     611.6888     502.8205
   1423.93677     611.7903     502.6241   1423.93677     611.7903     502.6241
   1423.92151     611.2464     502.0601   1423.92151     611.2464     502.0601
   1423.90625     609.5237     501.2887   1423.90625     609.5237     501.2887
   1423.89099     608.9200     501.6321   1423.89099     608.9200     501.6321
   1423.87573     609.2626     501.7050   1423.87573     609.2626     501.7050
   1423.86047     609.5394     501.4825   1423.86047     609.5394     501.4825
   1423.84521     607.8571     501.6409   1423.84521     607.8571     501.6409
   1423.82996     608.1775     502.0760   1423.82996     608.1775     502.0760
   1423.81470     607.8249     502.0154   1423.81470     607.8249     502.0154
   1423.79944     607.1752     500.8322   1423.79944     607.1752     500.8322
   1423.78418     607.4523     500.6001   1423.78418     607.4523     500.6001
   1423.76892     605.3584     500.3837   1423.76892     605.3584     500.3837
   1423.75366     605.4214     500.6556   1423.75366     605.4214     500.6556
   1423.73840     605.3481     500.6295   1423.73840     605.3481     500.6295
   1423.72314     605.0983     499.2815   1423.72314     605.0983     499.2815
   1423.70789     604.7922     499.6918   1423.70789     604.7922     499.6918
   1423.69263     603.1666     499.5405   1423.69263     603.1666     499.5405
   1423.67737     603.8084     498.5900   1423.67737     603.8084     498.5900
   1423.66211     601.9639     499.6828   1423.66211     601.9639     499.6828
   1423.64685     602.3198     498.3010   1423.64685     602.3198     498.3010
   1423.63159     602.1224     498.1355   1423.63159     602.1224     498.1355
   1423.61633     601.5902     498.2906   1423.61633     601.5902     498.2906
   1423.60107     601.4066     498.8036   1423.60107     601.4066     498.8036
   1423.58582     601.4142     498.0418   1423.58582     601.4142     498.0418
   1423.57056     601.0241     497.9866   1423.57056     601.0241     497.9866
   1423.55530     600.6489     497.6263   1423.55530     600.6489     497.6263
   1423.54004     600.0437     497.5681   1423.54004     600.0437     497.5681
   1423.52478     599.4008     496.2362   1423.52478     599.4008     496.2362
   1423.50952     599.3677     497.1589   1423.50952     599.3677     497.1589
   1423.49426     599.0386     496.5747   1423.49426     599.0386     496.5747
   1423.47900     597.8793     496.0516   1423.47900     597.8793     496.0516
   1423.46375     597.5510     495.3653   1423.46375     597.5510     495.3653
   1423.44849     597.0952     495.3150   1423.44849     597.0952     495.3150
   1423.43323     596.5211     495.1931   1423.43323     596.5211     495.1931
   1423.41797     594.9765     494.9746   1423.41797     594.9765     494.9746
   1423.40271     595.8465     494.6193   1423.40271     595.8465     494.6193
   1423.38745     595.3964     493.4990   1423.38745     595.3964     493.4990
   1423.37219     595.2318     493.0339   1423.37219     595.2318     493.0339
   1423.35693     594.0350     493.3474   1423.35693     594.0350     493.3474
   1423.34167     592.8437     492.0492   1423.34167     592.8437     492.0492
   1423.32642     593.7815     491.8553   1423.32642     593.7815     491.8553
   1423.31116     593.5803     491.4684   1423.31116     593.5803     491.4684
   1423.29590     593.5859     491.1520   1423.29590     593.5859     491.1520
   1423.28064     592.3737     491.5724   1423.28064     592.3737     491.5724
   1423.26538     591.1450     491.0863   1423.26538     591.1450     491.0863
   1423.25012     591.3920     490.1386   1423.25012     591.3920     490.1386
   1423.23486     591.3453     490.7212   1423.23486     591.3453     490.7212
   1423.21960     590.8417     489.4128   1423.21960     590.8417     489.4128
   1423.20435     590.3195     489.6051   1423.20435     590.3195     489.6051
   1423.18909     590.5809     489.0149   1423.18909     590.5809     489.0149
   1423.17383     589.9946     487.6281   1423.17383     589.9946     487.6281
   1423.15857     589.4523     487.8446   1423.15857     589.4523     487.8446
   1423.14331     588.6502     486.9411   1423.14331     588.6502     486.9411
   1423.12805     588.6548     486.6278   1423.12805     588.6548     486.6278
   1423.11279     588.3068     485.9119   1423.11279     588.3068     485.9119
   1423.09753     587.2045     486.0346   1423.09753     587.2045     486.0346
   1423.08228     586.8010     484.8166   1423.08228     586.8010     484.8166
   1423.06702     586.3792     484.7123   1423.06702     586.3792     484.7123
   1423.05176     586.0908     484.4354   1423.05176     586.0908     484.4354
   1423.03650     585.5225     483.6312   1423.03650     585.5225     483.6312
   1423.02124     586.3323     482.7092   1423.02124     586.3323     482.7092
   1423.00598     585.4205     481.6659   1423.00598     585.4205     481.6659
   1422.99072     584.2585     482.1231   1422.99072     584.2585     482.1231
   1422.97546     583.8335     482.1536   1422.97546     583.8335     482.1536
   1422.96021     584.8443     480.6434   1422.96021     584.8443     480.6434
   1422.94495     585.2298     480.0700   1422.94495     585.2298     480.0700
   1422.92969     584.2681     480.1049   1422.92969     584.2681     480.1049
   1422.91443     583.9487     479.0773   1422.91443     583.9487     479.0773
   1422.89917     583.7233     478.4894   1422.89917     583.7233     478.4894
   1422.88391     582.5264     478.0486   1422.88391     582.5264     478.0486
   1422.86865     582.2083     477.3738   1422.86865     582.2083     477.3738
   1422.85339     582.2488     477.3106   1422.85339     582.2488     477.3106
   1422.83813     581.9263     475.8302   1422.83813     581.9263     475.8302
   1422.82288     582.9535     475.2770   1422.82288     582.9535     475.2770
   1422.80762     580.8492     474.7174   1422.80762     580.8492     474.7174
   1422.79236     581.3231     474.1039   1422.79236     581.3231     474.1039
   1422.77710     581.4164     473.1292   1422.77710     581.4164     473.1292
   1422.76184     579.9155     472.7358   1422.76184     579.9155     472.7358
   1422.74658     580.1357     472.5422   1422.74658     580.1357     472.5422
   1422.73132     581.2324     471.5405   1422.73132     581.2324     471.5405
   1422.71606     579.8772     470.2347   1422.71606     579.8772     470.2347
   1422.70081     579.4299     470.2895   1422.70081     579.4299     470.2895
   1422.68555     579.4695     469.3524   1422.68555     579.4695     469.3524
   1422.67029     579.3958     468.7036   1422.67029     579.3958     468.7036
   1422.65503     578.6677     468.3510   1422.65503     578.6677     468.3510
   1422.63977     579.5084     467.3246   1422.63977     579.5084     467.3246
   1422.62451     578.6674     467.1793   1422.62451     578.6674     467.1793
   1422.60925     578.0131     466.0551   1422.60925     578.0131     466.0551
   1422.59399     577.7602     465.3248   1422.59399     577.7602     465.3248
   1422.57874     577.8563     465.1016   1422.57874     577.8563     465.1016
   1422.56348     577.6732     463.6694   1422.56348     577.6732     463.6694
   1422.54822     576.8828     462.7704   1422.54822     576.8828     462.7704
   1422.53296     577.2576     461.6461   1422.53296     577.2576     461.6461
   1422.51770     575.5513     461.9517   1422.51770     575.5513     461.9517
   1422.50244     575.5528     460.9340   1422.50244     575.5528     460.9340
   1422.48718     576.4020     459.9058   1422.48718     576.4020     459.9058
   1422.47192     576.2006     458.8159   1422.47192     576.2006     458.8159
   1422.45667     575.7534     458.7386   1422.45667     575.7534     458.7386
   1422.44141     575.9738     457.1404   1422.44141     575.9738     457.1404
   1422.42615     575.3728     456.7914   1422.42615     575.3728     456.7914
   1422.41089     576.4278     455.8482   1422.41089     576.4278     455.8482
   1422.39563     574.5592     454.8788   1422.39563     574.5592     454.8788
   1422.38037     574.0655     454.3665   1422.38037     574.0655     454.3665
   1422.36511     574.2784     453.8527   1422.36511     574.2784     453.8527
   1422.34985     574.1882     453.0262   1422.34985     574.1882     453.0262
   1422.33459     574.0103     451.9860   1422.33459     574.0103     451.9860
   1422.31934     573.9691     451.2271   1422.31934     573.9691     451.2271
   1422.30408     574.0761     450.0727   1422.30408     574.0761     450.0727
   1422.28882     573.8718     449.4771   1422.28882     573.8718     449.4771
   1422.27356     573.4640     449.0996   1422.27356     573.4640     449.0996
   1422.25830     573.0863     448.1617   1422.25830     573.0863     448.1617
   1422.24304     574.1719     451.5411   1422.24304     574.1719     451.5411
   1422.22778     573.4039     447.9048   1422.22778     573.4039     447.9048
   1422.21252     572.8185     445.6601   1422.21252     572.8185     445.6601
   1422.19727     572.8064     444.8369   1422.19727     572.8064     444.8369
   1422.18201     572.9563     443.8118   1422.18201     572.9563     443.8118
   1422.16675     572.0165     443.0042   1422.16675     572.0165     443.0042
   1422.15149     572.8591     441.5768   1422.15149     572.8591     441.5768
   1422.13623     571.7115     440.8765   1422.13623     571.7115     440.8765
   1422.12097     573.0347     440.6461   1422.12097     573.0347     440.6461
   1422.10571     571.8854     439.4898   1422.10571     571.8854     439.4898
   1422.09045     571.9216     438.1875   1422.09045     571.9216     438.1875
   1422.07520     571.4253     438.0094   1422.07520     571.4253     438.0094
   1422.05994     571.2281     436.2639   1422.05994     571.2281     436.2639
   1422.04468     571.9606     435.7345   1422.04468     571.9606     435.7345
   1422.02942     571.3731     435.0277   1422.02942     571.3731     435.0277
   1422.01416     570.7876     433.8251   1422.01416     570.7876     433.8251
   1421.99890     571.2767     433.3075   1421.99890     571.2767     433.3075
   1421.98364     570.7706     431.9151   1421.98364     570.7706     431.9151
   1421.96838     570.4961     431.3430   1421.96838     570.4961     431.3430
   1421.95312     570.1626     430.4581   1421.95312     570.1626     430.4581
   1421.93787     569.8246     430.0366   1421.93787     569.8246     430.0366
   1421.92261     570.2812     429.0439   1421.92261     570.2812     429.0439
   1421.90735     570.5494     427.6248   1421.90735     570.5494     427.6248
   1421.89209     569.3907     427.1615   1421.89209     569.3907     427.1615
   1421.87683     570.2414     425.7727   1421.87683     570.2414     425.7727
   1421.86157     569.4453     425.3681   1421.86157     569.4453     425.3681
   1421.84631     570.1785     424.3362   1421.84631     570.1785     424.3362
   1421.83105     569.9550     423.5623   1421.83105     569.9550     423.5623
   1421.81580     569.6864     422.0867   1421.81580     569.6864     422.0867
   1421.80054     569.3375     421.8830   1421.80054     569.3375     421.8830
   1421.78528     569.2804     420.5825   1421.78528     569.2804     420.5825
   1421.77002     568.6964     419.8658   1421.77002     568.6964     419.8658
   1421.75476     568.5155     419.5652   1421.75476     568.5155     419.5652
   1421.73950     568.6013     418.5121   1421.73950     568.6013     418.5121
   1421.72424     568.4313     417.5483   1421.72424     568.4313     417.5483
   1421.70898     568.3599     416.3997   1421.70898     568.3599     416.3997
   1421.69373     568.3312     415.2888   1421.69373     568.3312     415.2888
   1421.67847     569.2897     413.9591   1421.67847     569.2897     413.9591
   1421.66321     567.8182     413.2143   1421.66321     567.8182     413.2143
   1421.64795     568.4872     413.0948   1421.64795     568.4872     413.0948
   1421.63269     568.6766     411.9948   1421.63269     568.6766     411.9948
   1421.61743     568.6044     411.0245   1421.61743     568.6044     411.0245
   1421.60217     567.8004     410.1594   1421.60217     567.8004     410.1594
   1421.58691     567.9500     409.0937   1421.58691     567.9500     409.0937
   1421.57166     567.5373     408.3771   1421.57166     567.5373     408.3771
   1421.55640     566.7004     408.0383   1421.55640     566.7004     408.0383
   1421.54114     566.5872     406.7092   1421.54114     566.5872     406.7092
   1421.52588     567.2435     405.3308   1421.52588     567.2435     405.3308
   1421.51062     567.1928     405.1144   1421.51062     567.1928     405.1144
   1421.49536     566.5052     404.0405   1421.49536     566.5052     404.0405
   1421.48010     566.4835     403.2405   1421.48010     566.4835     403.2405
   1421.46484     566.7326     402.6639   1421.46484     566.7326     402.6639
   1421.44958     567.5507     400.8108   1421.44958     567.5507     400.8108
   1421.43433     565.9554     400.3357   1421.43433     565.9554     400.3357
   1421.41907     566.4097     399.4788   1421.41907     566.4097     399.4788
   1421.40381     566.9945     398.6688   1421.40381     566.9945     398.6688
   1421.38855     565.7867     398.3306   1421.38855     565.7867     398.3306
   1421.37329     565.9986     397.1578   1421.37329     565.9986     397.1578
   1421.35803     565.7912     395.7175   1421.35803     565.7912     395.7175
   1421.34277     565.0164     396.1772   1421.34277     565.0164     396.1772
   1421.32751     566.3488     394.5570   1421.32751     566.3488     394.5570
   1421.31226     566.3396     393.6855   1421.31226     566.3396     393.6855
   1421.29700     565.8285     393.1270   1421.29700     565.8285     393.1270
   1421.28174     565.5851     391.8274   1421.28174     565.5851     391.8274
   1421.26648     564.9090     390.9217   1421.26648     564.9090     390.9217
   1421.25122     564.8798     389.6891   1421.25122     564.8798     389.6891
   1421.23596     565.3492     389.4785   1421.23596     565.3492     389.4785
   1421.22070     566.2720     389.1698   1421.22070     566.2720     389.1698
   1421.20544     567.3787     388.3703   1421.20544     567.3787     388.3703
   1421.19019     567.7742     388.8212   1421.19019     567.7742     388.8212
   1421.17493     569.4607     388.8167   1421.17493     569.4607     388.8167
   1421.15967     569.2464     388.3491   1421.15967     569.2464     388.3491
   1421.14441     571.3555     388.8020   1421.14441     571.3555     388.8020
   1421.12915     571.2318     388.5551   1421.12915     571.2318     388.5551
   1421.11389     572.5363     387.5827   1421.11389     572.5363     387.5827
   1421.09863     572.3543     387.2787   1421.09863     572.3543     387.2787
   1421.08337     572.5873     386.2967   1421.08337     572.5873     386.2967
   1421.06812     570.8471     384.7344   1421.06812     570.8471     384.7344
   1421.05286     570.1699     383.8415   1421.05286     570.1699     383.8415
   1421.03760     569.6116     383.0024   1421.03760     569.6116     383.0024
   1421.02234     569.1729     382.1220   1421.02234     569.1729     382.1220
   1421.00708     569.3153     380.4752   1421.00708     569.3153     380.4752
   1420.99182     568.2938     379.1657   1420.99182     568.2938     379.1657
   1420.97656     567.7766     379.3252   1420.97656     567.7766     379.3252
   1420.96130     569.0042     378.4745   1420.96130     569.0042     378.4745
   1420.94604     570.8577     378.3783   1420.94604     570.8577     378.3783
   1420.93079     573.1108     379.4015   1420.93079     573.1108     379.4015
   1420.91553     576.3438     381.4988   1420.91553     576.3438     381.4988
   1420.90027     585.8960     386.1832   1420.90027     585.8960     386.1832
   1420.88501     600.1068     395.7148   1420.88501     600.1068     395.7148
   1420.86975     636.3011     418.0677   1420.86975     636.3011     418.0677
   1420.85449     715.4578     466.4365   1420.85449     715.4578     466.4365
   1420.83923     783.2537     509.8636   1420.83923     783.2537     509.8636
   1420.82397     836.5684     542.0276   1420.82397     836.5684     542.0276
   1420.80872     838.6099     541.2438   1420.80872     838.6099     541.2438
   1420.79346     774.3244     501.0223   1420.79346     774.3244     501.0223
   1420.77820     776.4102     502.1544   1420.77820     776.4102     502.1544
   1420.76294     804.9784     518.6994   1420.76294     804.9784     518.6994
   1420.74768     752.3789     485.4940   1420.74768     752.3789     485.4940
   1420.73242     715.3138     460.5369   1420.73242     715.3138     460.5369
   1420.71716     738.3830     473.1826   1420.71716     738.3830     473.1826
   1420.70190     844.4102     539.6083   1420.70190     844.4102     539.6083
   1420.68665    1041.5933     663.3629   1420.68665    1041.5933     663.3629
   1420.67139    1211.4799     768.3419   1420.67139    1211.4799     768.3419
   1420.65613    1378.4966     870.6497   1420.65613    1378.4966     870.6497
   1420.64087    1592.3361    1004.5055   1420.64087    1592.3361    1004.5055
   1420.62561    1775.1661    1113.8976   1420.62561    1775.1661    1113.8976
   1420.61035    1912.1283    1198.7467   1420.61035    1912.1283    1198.7467
   1420.59509    1975.5626    1237.7800   1420.59509    1975.5626    1237.7800
   1420.57983    1919.7094    1198.6621   1420.57983    1919.7094    1198.6621
   1420.56458    1572.5543     982.8391   1420.56458    1572.5543     982.8391
   1420.54932    1194.4309     747.4741   1420.54932    1194.4309     747.4741
   1420.53406    1038.4974     649.6082   1420.53406    1038.4974     649.6082
   1420.51880    1060.7944     661.5399   1420.51880    1060.7944     661.5399
   1420.50354    1202.6824     748.0049   1420.50354    1202.6824     748.0049
   1420.48828    1227.8247     762.4866   1420.48828    1227.8247     762.4866
   1420.47302    1151.8589     716.5521   1420.47302    1151.8589     716.5521
   1420.45776    1126.5695     699.5516   1420.45776    1126.5695     699.5516
   1420.44250    1177.1914     730.2214   1420.44250    1177.1914     730.2214
   1420.42725    1357.6970     838.4993   1420.42725    1357.6970     838.4993
   1420.41199    1453.9009     894.6241   1420.41199    1453.9009     894.6241
   1420.39673    1236.8463     760.7206   1420.39673    1236.8463     760.7206
   1420.38147     831.1265     514.2419   1420.38147     831.1265     514.2419
   1420.36621     648.7587     403.4658   1420.36621     648.7587     403.4658
   1420.35095     600.8240     373.5483   1420.35095     600.8240     373.5483
   1420.33569     583.5662     362.7704   1420.33569     583.5662     362.7704
   1420.32043     573.7736     357.1443   1420.32043     573.7736     357.1443
   1420.30518     569.6917     354.0142   1420.30518     569.6917     354.0142
   1420.28992     566.4088     351.1461   1420.28992     566.4088     351.1461
   1420.27466     564.2537     349.8828   1420.27466     564.2537     349.8828
   1420.25940     564.1042     348.3918   1420.25940     564.1042     348.3918
   1420.24414     561.6994     347.3755   1420.24414     561.6994     347.3755
   1420.22888     561.8301     346.7766   1420.22888     561.8301     346.7766
   1420.21362     560.7770     345.9037   1420.21362     560.7770     345.9037
   1420.19836     559.8542     344.3571   1420.19836     559.8542     344.3571
   1420.18311     559.5779     343.7658   1420.18311     559.5779     343.7658
   1420.16785     558.0259     342.6400   1420.16785     558.0259     342.6400
   1420.15259     558.0678     342.8509   1420.15259     558.0678     342.8509
   1420.13733     557.7337     341.1731   1420.13733     557.7337     341.1731
   1420.12207     556.9045     340.8746   1420.12207     556.9045     340.8746
   1420.10681     556.0196     339.9742   1420.10681     556.0196     339.9742
   1420.09155     556.1019     339.4508   1420.09155     556.1019     339.4508
   1420.07629     555.4481     339.2052   1420.07629     555.4481     339.2052
   1420.06104     554.8423     338.5199   1420.06104     554.8423     338.5199
   1420.04578     554.8602     338.3158   1420.04578     554.8602     338.3158
   1420.03052     554.8762     338.4612   1420.03052     554.8762     338.4612
   1420.01526     557.7409     340.7313   1420.01526     557.7409     340.7313
   1420.00000     557.6980     340.6485   1420.00000     557.6980     340.6485
   1419.98474     557.6550     340.5656   1419.98474     557.6550     340.5656
   1419.96948     557.5868     337.1831   1419.96948     557.5868     337.1831
   1419.95422     554.1072     335.1455   1419.95422     554.1072     335.1455
   1419.93896     555.1100     335.3649   1419.93896     555.1100     335.3649
   1419.92371     555.2921     335.2639   1419.92371     555.2921     335.2639
   1419.90845     554.5016     334.9168   1419.90845     554.5016     334.9168
   1419.89319     553.6793     334.6342   1419.89319     553.6793     334.6342
   1419.87793     554.5377     334.3619   1419.87793     554.5377     334.3619
   1419.86267     554.5976     333.7179   1419.86267     554.5976     333.7179
   1419.84741     554.5505     332.9667   1419.84741     554.5505     332.9667
   1419.83215     554.3767     334.2540   1419.83215     554.3767     334.2540
   1419.81689     555.5851     333.5598   1419.81689     555.5851     333.5598
   1419.80164     555.2184     333.6766   1419.80164     555.2184     333.6766
   1419.78638     554.8229     332.8945   1419.78638     554.8229     332.8945
   1419.77112     554.7526     332.6028   1419.77112     554.7526     332.6028
   1419.75586     555.2809     332.3729   1419.75586     555.2809     332.3729
   1419.74060     554.3391     332.1836   1419.74060     554.3391     332.1836
   1419.72534     555.9551     332.7279   1419.72534     555.9551     332.7279
   1419.71008     554.5674     331.9232   1419.71008     554.5674     331.9232
   1419.69482     555.5336     331.6623   1419.69482     555.5336     331.6623
   1419.67957     556.1953     331.6056   1419.67957     556.1953     331.6056
   1419.66431     555.6810     331.6397   1419.66431     555.6810     331.6397
   1419.64905     556.7763     331.4515   1419.64905     556.7763     331.4515
   1419.63379     556.4015     331.2397   1419.63379     556.4015     331.2397
   1419.61853     556.6478     331.5652   1419.61853     556.6478     331.5652
   1419.60327     556.6072     331.1656   1419.60327     556.6072     331.1656
   1419.58801     556.2294     331.6334   1419.58801     556.2294     331.6334
   1419.57275     556.8152     332.1235   1419.57275     556.8152     332.1235
   1419.55750     557.2454     331.0576   1419.55750     557.2454     331.0576
   1419.54224     557.1616     332.0589   1419.54224     557.1616     332.0589
   1419.52698     557.5176     331.1779   1419.52698     557.5176     331.1779
   1419.51172     557.5677     331.5301   1419.51172     557.5677     331.5301
   1419.49646     558.1741     331.5346   1419.49646     558.1741     331.5346
   1419.48120     557.7857     331.2443   1419.48120     557.7857     331.2443
   1419.46594     557.8741     331.3366   1419.46594     557.8741     331.3366
   1419.45068     557.9608     330.9642   1419.45068     557.9608     330.9642
   1419.43542     558.5814     331.0765   1419.43542     558.5814     331.0765
   1419.42017     559.0665     331.2656   1419.42017     559.0665     331.2656
   1419.40491     558.5753     330.5323   1419.40491     558.5753     330.5323
   1419.38965     558.6749     331.1101   1419.38965     558.6749     331.1101
   1419.37439     559.4825     330.7061   1419.37439     559.4825     330.7061
   1419.35913     559.9272     331.4451   1419.35913     559.9272     331.4451
   1419.34387     559.7798     331.8455   1419.34387     559.7798     331.8455
   1419.32861     560.6025     331.2846   1419.32861     560.6025     331.2846
   1419.31335     560.8704     331.3800   1419.31335     560.8704     331.3800
   1419.29810     560.2452     331.9802   1419.29810     560.2452     331.9802
   1419.28284     561.2197     331.3612   1419.28284     561.2197     331.3612
   1419.26758     561.7555     332.0919   1419.26758     561.7555     332.0919
   1419.25232     560.9855     332.2334   1419.25232     560.9855     332.2334
   1419.23706     562.2267     332.1404   1419.23706     562.2267     332.1404
   1419.22180     562.2333     332.6903   1419.22180     562.2333     332.6903
   1419.20654     562.7989     332.3439   1419.20654     562.7989     332.3439
   1419.19128     562.1102     332.5340   1419.19128     562.1102     332.5340
   1419.17603     562.9377     333.2542   1419.17603     562.9377     333.2542
   1419.16077     562.7958     332.9049   1419.16077     562.7958     332.9049
   1419.14551     564.1521     333.2145   1419.14551     564.1521     333.2145
   1419.13025     564.5480     333.2791   1419.13025     564.5480     333.2791
   1419.11499     564.2712     333.7397   1419.11499     564.2712     333.7397
   1419.09973     565.2324     333.7563   1419.09973     565.2324     333.7563
   1419.08447     565.6934     334.0804   1419.08447     565.6934     334.0804
   1419.06921     565.7286     334.5965   1419.06921     565.7286     334.5965
   1419.05396     565.9434     334.4536   1419.05396     565.9434     334.4536
   1419.03870     566.3762     334.5331   1419.03870     566.3762     334.5331
   1419.02344     566.9929     335.8875   1419.02344     566.9929     335.8875
   1419.00818     567.0363     335.5612   1419.00818     567.0363     335.5612
   1418.99292     567.2390     335.3420   1418.99292     567.2390     335.3420
   1418.97766     568.3299     336.6085   1418.97766     568.3299     336.6085
   1418.96240     567.9674     336.0778   1418.96240     567.9674     336.0778
   1418.94714     568.8359     336.7410   1418.94714     568.8359     336.7410
   1418.93188     568.7767     337.0182   1418.93188     568.7767     337.0182
   1418.91663     570.1710     337.2470   1418.91663     570.1710     337.2470
   1418.90137     570.3364     337.3098   1418.90137     570.3364     337.3098
   1418.88611     570.9108     337.8571   1418.88611     570.9108     337.8571
   1418.87085     571.0827     338.7483   1418.87085     571.0827     338.7483
   1418.85559     571.0536     339.4841   1418.85559     571.0536     339.4841
   1418.84033     572.6249     339.3583   1418.84033     572.6249     339.3583
   1418.82507     572.2181     339.8596   1418.82507     572.2181     339.8596
   1418.80981     573.0883     340.1552   1418.80981     573.0883     340.1552
   1418.79456     573.6554     340.5082   1418.79456     573.6554     340.5082
   1418.77930     574.1933     340.8654   1418.77930     574.1933     340.8654
   1418.76404     573.8116     341.3179   1418.76404     573.8116     341.3179
   1418.74878     574.2914     341.7237   1418.74878     574.2914     341.7237
   1418.73352     575.5610     341.5069   1418.73352     575.5610     341.5069
   1418.71826     576.8640     342.9576   1418.71826     576.8640     342.9576
   1418.70300     576.4091     343.4079   1418.70300     576.4091     343.4079
   1418.68774     576.2788     343.2049   1418.68774     576.2788     343.2049
   1418.67249     576.7333     343.9916   1418.67249     576.7333     343.9916
   1418.65723     578.8306     344.4836   1418.65723     578.8306     344.4836
   1418.64197     579.0377     345.0471   1418.64197     579.0377     345.0471
   1418.62671     579.2870     345.5458   1418.62671     579.2870     345.5458
   1418.61145     579.3271     346.7990   1418.61145     579.3271     346.7990
   1418.59619     579.3912     346.9712   1418.59619     579.3912     346.9712
   1418.58093     581.0150     347.1592   1418.58093     581.0150     347.1592
   1418.56567     581.5688     347.4945   1418.56567     581.5688     347.4945
   1418.55042     581.4619     348.7437   1418.55042     581.4619     348.7437
   1418.53516     582.6913     348.9966   1418.53516     582.6913     348.9966
   1418.51990     583.1117     349.2790   1418.51990     583.1117     349.2790
   1418.50464     583.5964     350.0546   1418.50464     583.5964     350.0546
   1418.48938     584.7209     350.1917   1418.48938     584.7209     350.1917
   1418.47412     584.6744     351.4936   1418.47412     584.6744     351.4936
   1418.45886     585.6469     352.4653   1418.45886     585.6469     352.4653
   1418.44360     585.2697     352.6951   1418.44360     585.2697     352.6951
   1418.42834     586.7458     352.6235   1418.42834     586.7458     352.6235
   1418.41309     586.9696     353.4429   1418.41309     586.9696     353.4429
   1418.39783     588.0241     354.0364   1418.39783     588.0241     354.0364
   1418.38257     588.7277     355.2607   1418.38257     588.7277     355.2607
   1418.36731     588.9212     355.5231   1418.36731     588.9212     355.5231
   1418.35205     588.9719     356.4000   1418.35205     588.9719     356.4000
   1418.33679     590.3633     356.3609   1418.33679     590.3633     356.3609
   1418.32153     591.4896     357.5549   1418.32153     591.4896     357.5549
   1418.30627     592.0346     358.7013   1418.30627     592.0346     358.7013
   1418.29102     592.5294     359.1785   1418.29102     592.5294     359.1785
   1418.27576     593.5683     359.2246   1418.27576     593.5683     359.2246
   1418.26050     594.3282     360.6234   1418.26050     594.3282     360.6234
   1418.24524     594.5908     360.9755   1418.24524     594.5908     360.9755
   1418.22998     595.8514     361.8132   1418.22998     595.8514     361.8132
   1418.21472     595.9854     362.8282   1418.21472     595.9854     362.8282
   1418.19946     596.1852     364.1397   1418.19946     596.1852     364.1397
   1418.18420     597.0464     363.8715   1418.18420     597.0464     363.8715
   1418.16895     597.7246     365.5494   1418.16895     597.7246     365.5494
   1418.15369     598.2279     365.7453   1418.15369     598.2279     365.7453
   1418.13843     599.2856     366.5432   1418.13843     599.2856     366.5432
   1418.12317     598.7877     366.9577   1418.12317     598.7877     366.9577
   1418.10791     600.3094     367.8503   1418.10791     600.3094     367.8503
   1418.09265     600.9468     368.8543   1418.09265     600.9468     368.8543
   1418.07739     601.8641     369.3027   1418.07739     601.8641     369.3027
   1418.06213     602.8067     370.4905   1418.06213     602.8067     370.4905
   1418.04688     603.9230     371.0878   1418.04688     603.9230     371.0878
   1418.03162     604.2941     371.7331   1418.03162     604.2941     371.7331
   1418.01636     604.7413     372.9138   1418.01636     604.7413     372.9138
   1418.00110     605.9464     373.6937   1418.00110     605.9464     373.6937
   1417.98584     606.1351     374.4148   1417.98584     606.1351     374.4148
   1417.97058     607.7526     375.0064   1417.97058     607.7526     375.0064
   1417.95532     608.1370     375.8125   1417.95532     608.1370     375.8125
   1417.94006     608.9484     377.1746   1417.94006     608.9484     377.1746
   1417.92480     608.7507     377.7258   1417.92480     608.7507     377.7258
   1417.90955     610.2821     378.6018   1417.90955     610.2821     378.6018
   1417.89429     611.4157     379.5554   1417.89429     611.4157     379.5554
   1417.87903     611.8820     380.8389   1417.87903     611.8820     380.8389
   1417.86377     612.1838     381.2387   1417.86377     612.1838     381.2387
   1417.84851     612.9495     382.3830   1417.84851     612.9495     382.3830
   1417.83325     613.3066     382.9551   1417.83325     613.3066     382.9551
   1417.81799     614.2967     384.3021   1417.81799     614.2967     384.3021
   1417.80273     616.4150     385.3079   1417.80273     616.4150     385.3079
   1417.78748     614.6598     385.9660   1417.78748     614.6598     385.9660
   1417.77222     617.6741     386.4804   1417.77222     617.6741     386.4804
   1417.75696     618.2913     388.4757   1417.75696     618.2913     388.4757
   1417.74170     618.5104     388.7238   1417.74170     618.5104     388.7238
   1417.72644     618.4658     389.7901   1417.72644     618.4658     389.7901
   1417.71118     619.2665     390.5748   1417.71118     619.2665     390.5748
   1417.69592     620.7479     391.7171   1417.69592     620.7479     391.7171
   1417.68066     622.8368     392.5526   1417.68066     622.8368     392.5526
   1417.66541     623.0336     392.9918   1417.66541     623.0336     392.9918
   1417.65015     622.8536     393.9351   1417.65015     622.8536     393.9351
   1417.63489     624.2074     396.0256   1417.63489     624.2074     396.0256
   1417.61963     625.2573     395.7074   1417.61963     625.2573     395.7074
   1417.60437     625.1057     397.9138   1417.60437     625.1057     397.9138
   1417.58911     625.6650     398.4330   1417.58911     625.6650     398.4330
   1417.57385     625.6300     399.1508   1417.57385     625.6300     399.1508
   1417.55859     628.2514     400.0641   1417.55859     628.2514     400.0641
   1417.54333     628.1087     401.4622   1417.54333     628.1087     401.4622
   1417.52808     628.4573     402.0776   1417.52808     628.4573     402.0776
   1417.51282     629.2065     402.7574   1417.51282     629.2065     402.7574
   1417.49756     631.0701     403.7824   1417.49756     631.0701     403.7824
   1417.48230     630.7380     404.8843   1417.48230     630.7380     404.8843
   1417.46704     631.9137     405.4807   1417.46704     631.9137     405.4807
   1417.45178     633.0601     406.2640   1417.45178     633.0601     406.2640
   1417.43652     632.6177     407.5368   1417.43652     632.6177     407.5368
   1417.42126     633.3704     408.7358   1417.42126     633.3704     408.7358
   1417.40601     634.9794     409.2760   1417.40601     634.9794     409.2760
   1417.39075     635.2864     409.2592   1417.39075     635.2864     409.2592
   1417.37549     635.2854     411.7401   1417.37549     635.2854     411.7401
   1417.36023     636.8993     412.8492   1417.36023     636.8993     412.8492
   1417.34497     636.7269     413.8290   1417.34497     636.7269     413.8290
   1417.32971     638.1174     414.7840   1417.32971     638.1174     414.7840
   1417.31445     639.2480     415.2303   1417.31445     639.2480     415.2303
   1417.29919     640.1426     416.3963   1417.29919     640.1426     416.3963
   1417.28394     639.5947     417.3089   1417.28394     639.5947     417.3089
   1417.26868     640.4199     418.0374   1417.26868     640.4199     418.0374
   1417.25342     640.8249     419.0544   1417.25342     640.8249     419.0544
   1417.23816     641.4352     419.8557   1417.23816     641.4352     419.8557
   1417.22290     642.7277     421.4778   1417.22290     642.7277     421.4778
   1417.20764     643.2371     421.9728   1417.20764     643.2371     421.9728
   1417.19238     643.2252     422.8068   1417.19238     643.2252     422.8068
   1417.17712     644.3887     423.4261   1417.17712     644.3887     423.4261
   1417.16187     645.1368     424.6780   1417.16187     645.1368     424.6780
   1417.14661     645.3595     424.4626   1417.14661     645.3595     424.4626
   1417.13135     646.1790     426.0809   1417.13135     646.1790     426.0809
   1417.11609     647.1475     427.2410   1417.11609     647.1475     427.2410
   1417.10083     646.6989     428.8821   1417.10083     646.6989     428.8821
   1417.08557     648.2642     429.0109   1417.08557     648.2642     429.0109
   1417.07031     648.8892     428.9572   1417.07031     648.8892     428.9572
   1417.05505     649.1561     430.0970   1417.05505     649.1561     430.0970
   1417.03979     648.7130     431.3406   1417.03979     648.7130     431.3406
   1417.02454     650.2877     432.3620   1417.02454     650.2877     432.3620
   1417.00928     649.6253     433.0527   1417.00928     649.6253     433.0527
   1416.99402     651.3018     434.3373   1416.99402     651.3018     434.3373
   1416.97876     651.7301     434.7704   1416.97876     651.7301     434.7704
   1416.96350     651.6827     436.0909   1416.96350     651.6827     436.0909
   1416.94824     652.2067     436.5102   1416.94824     652.2067     436.5102
   1416.93298     652.1923     436.9841   1416.93298     652.1923     436.9841
   1416.91772     652.6363     437.5282   1416.91772     652.6363     437.5282
   1416.90247     653.2287     438.1047   1416.90247     653.2287     438.1047
   1416.88721     653.9050     439.2720   1416.88721     653.9050     439.2720
   1416.87195     654.8580     440.6019   1416.87195     654.8580     440.6019
   1416.85669     654.8628     440.7106   1416.85669     654.8628     440.7106
   1416.84143     654.8661     441.8815   1416.84143     654.8661     441.8815
   1416.82617     655.4717     441.5918   1416.82617     655.4717     441.5918
   1416.81091     656.6963     442.6902   1416.81091     656.6963     442.6902
   1416.79565     655.5222     443.6527   1416.79565     655.5222     443.6527
   1416.78040     656.7645     443.6759   1416.78040     656.7645     443.6759
   1416.76514     655.9772     444.0720   1416.76514     655.9772     444.0720
   1416.74988     655.6344     444.5829   1416.74988     655.6344     444.5829
   1416.73462     657.2648     445.3390   1416.73462     657.2648     445.3390
   1416.71936     656.8213     445.7531   1416.71936     656.8213     445.7531
   1416.70410     657.2774     446.4990   1416.70410     657.2774     446.4990
   1416.68884     657.3228     447.0064   1416.68884     657.3228     447.0064
   1416.67358     657.2187     447.1070   1416.67358     657.2187     447.1070
   1416.65833     658.2264     447.8213   1416.65833     658.2264     447.8213
   1416.64307     658.8202     447.7307   1416.64307     658.8202     447.7307
   1416.62781     658.3561     448.5565   1416.62781     658.3561     448.5565
   1416.61255     658.8387     449.4674   1416.61255     658.8387     449.4674
   1416.59729     660.2637     449.5351   1416.59729     660.2637     449.5351
   1416.58203     658.7822     449.5261   1416.58203     658.7822     449.5261
   1416.56677     658.6199     451.0718   1416.56677     658.6199     451.0718
   1416.55151     657.5944     450.0925   1416.55151     657.5944     450.0925
   1416.53625     658.7847     450.4784   1416.53625     658.7847     450.4784
   1416.52100     658.6948     450.5658   1416.52100     658.6948     450.5658
   1416.50574     657.5174     450.9209   1416.50574     657.5174     450.9209
   1416.49048     657.9018     451.7118   1416.49048     657.9018     451.7118
   1416.47522     658.1545     451.4284   1416.47522     658.1545     451.4284
   1416.45996     657.7562     451.3558   1416.45996     657.7562     451.3558
   1416.44470     658.1899     452.2025   1416.44470     658.1899     452.2025
   1416.42944     657.5126     451.9634   1416.42944     657.5126     451.9634
   1416.41418     658.3528     452.0255   1416.41418     658.3528     452.0255
   1416.39893     658.0027     451.9645   1416.39893     658.0027     451.9645
   1416.38367     658.6656     452.7816   1416.38367     658.6656     452.7816
   1416.36841     658.0864     452.5297   1416.36841     658.0864     452.5297
   1416.35315     658.0355     451.9862   1416.35315     658.0355     451.9862
   1416.33789     658.0862     452.4952   1416.33789     658.0862     452.4952
   1416.32263     657.2124     452.1515   1416.32263     657.2124     452.1515
   1416.30737     657.2779     452.2727   1416.30737     657.2779     452.2727
   1416.29211     657.3647     452.4777   1416.29211     657.3647     452.4777
   1416.27686     656.2872     452.0460   1416.27686     656.2872     452.0460
   1416.26160     657.4509     451.9560   1416.26160     657.4509     451.9560
   1416.24634     655.5674     452.1336   1416.24634     655.5674     452.1336
   1416.23108     656.9995     451.7214   1416.23108     656.9995     451.7214
   1416.21582     656.7310     452.6449   1416.21582     656.7310     452.6449
   1416.20056     655.3255     451.3788   1416.20056     655.3255     451.3788
   1416.18530     654.9880     451.3527   1416.18530     654.9880     451.3527
   1416.17004     654.2929     451.1470   1416.17004     654.2929     451.1470
   1416.15479     653.9697     450.7940   1416.15479     653.9697     450.7940
   1416.13953     653.4706     450.0197   1416.13953     653.4706     450.0197
   1416.12427     653.1323     449.7527   1416.12427     653.1323     449.7527
   1416.10901     653.0532     449.6750   1416.10901     653.0532     449.6750
   1416.09375     652.1525     449.3323   1416.09375     652.1525     449.3323
   1416.07849     652.6148     449.2795   1416.07849     652.6148     449.2795
   1416.06323     652.5273     449.2507   1416.06323     652.5273     449.2507
   1416.04797     651.9863     448.8377   1416.04797     651.9863     448.8377
   1416.03271     651.2006     448.8956   1416.03271     651.2006     448.8956
   1416.01746     649.7603     448.2953   1416.01746     649.7603     448.2953
   1416.00220     650.5151     448.4356   1416.00220     650.5151     448.4356
   1415.98694     649.0157     447.8798   1415.98694     649.0157     447.8798
   1415.97168     648.6764     446.5814   1415.97168     648.6764     446.5814
   1415.95642     649.4072     447.3552   1415.95642     649.4072     447.3552
   1415.94116     648.2069     446.7863   1415.94116     648.2069     446.7863
   1415.92590     647.4822     445.5503   1415.92590     647.4822     445.5503
   1415.91064     647.4474     445.9480   1415.91064     647.4474     445.9480
   1415.89539     646.4888     444.6355   1415.89539     646.4888     444.6355
   1415.88013     645.5989     444.4260   1415.88013     645.5989     444.4260
   1415.86487     646.1925     444.2898   1415.86487     646.1925     444.2898
   1415.84961     644.9351     444.6602   1415.84961     644.9351     444.6602
   1415.83435     646.5040     443.7511   1415.83435     646.5040     443.7511
   1415.81909     643.4105     442.8998   1415.81909     643.4105     442.8998
   1415.80383     643.1540     441.8451   1415.80383     643.1540     441.8451
   1415.78857     642.3360     442.0691   1415.78857     642.3360     442.0691
   1415.77332     642.7127     441.8296   1415.77332     642.7127     441.8296
   1415.75806     640.5566     440.7019   1415.75806     640.5566     440.7019
   1415.74280     640.3949     440.0327   1415.74280     640.3949     440.0327
   1415.72754     640.2372     440.0253   1415.72754     640.2372     440.0253
   1415.71228     639.4846     439.3994   1415.71228     639.4846     439.3994
   1415.69702     638.6682     439.4359   1415.69702     638.6682     439.4359
   1415.68176     638.1246     437.9753   1415.68176     638.1246     437.9753
   1415.66650     637.1216     438.0865   1415.66650     637.1216     438.0865
   1415.65125     637.5804     437.3795   1415.65125     637.5804     437.3795
   1415.63599     636.1257     436.7801   1415.63599     636.1257     436.7801
   1415.62073     634.9682     436.1156   1415.62073     634.9682     436.1156
   1415.60547     634.9299     435.8008   1415.60547     634.9299     435.8008
   1415.59021     634.3791     435.6736   1415.59021     634.3791     435.6736
   1415.57495     632.4013     434.1012   1415.57495     632.4013     434.1012
   1415.55969     632.4682     433.1190   1415.55969     632.4682     433.1190
   1415.54443     631.4138     433.0615   1415.54443     631.4138     433.0615
   1415.52917     630.5083     433.2928   1415.52917     630.5083     433.2928
   1415.51392     629.4609     431.4021   1415.51392     629.4609     431.4021
   1415.49866     629.0839     431.4505   1415.49866     629.0839     431.4505
   1415.48340     627.4526     430.1420   1415.48340     627.4526     430.1420
   1415.46814     627.3837     429.9017   1415.46814     627.3837     429.9017
   1415.45288     629.4405     429.5312   1415.45288     629.4405     429.5312
   1415.43762     625.8599     429.1465   1415.43762     625.8599     429.1465
   1415.42236     625.0868     428.5534   1415.42236     625.0868     428.5534
   1415.40710     623.2343     427.9892   1415.40710     623.2343     427.9892
   1415.39185     623.2519     427.3162   1415.39185     623.2519     427.3162
   1415.37659     621.8178     426.0547   1415.37659     621.8178     426.0547
   1415.36133     620.4486     425.3612   1415.36133     620.4486     425.3612
   1415.34607     620.5349     425.3572   1415.34607     620.5349     425.3572
   1415.33081     619.6057     424.0723   1415.33081     619.6057     424.0723
   1415.31555     619.4816     423.8029   1415.31555     619.4816     423.8029
   1415.30029     616.1390     422.6766   1415.30029     616.1390     422.6766
   1415.28503     616.6974     421.5945   1415.28503     616.6974     421.5945
   1415.26978     614.9957     421.4650   1415.26978     614.9957     421.4650
   1415.25452     613.9418     420.7862   1415.25452     613.9418     420.7862
   1415.23926     612.7205     419.4668   1415.23926     612.7205     419.4668
   1415.22400     612.3834     419.3360   1415.22400     612.3834     419.3360
   1415.20874     611.1255     418.3036   1415.20874     611.1255     418.3036
   1415.19348     609.8752     417.3675   1415.19348     609.8752     417.3675
   1415.17822     610.1350     417.0054   1415.17822     610.1350     417.0054
   1415.16296     608.1907     416.7413   1415.16296     608.1907     416.7413
   1415.14771     606.8633     414.8294   1415.14771     606.8633     414.8294
   1415.13245     605.2367     414.2212   1415.13245     605.2367     414.2212
   1415.11719     604.6915     413.7292   1415.11719     604.6915     413.7292
   1415.10193     603.2888     411.9992   1415.10193     603.2888     411.9992
   1415.08667     600.8322     412.1015   1415.08667     600.8322     412.1015
   1415.07141     601.2015     411.4565   1415.07141     601.2015     411.4565
   1415.05615     599.4850     410.0440   1415.05615     599.4850     410.0440
   1415.04089     598.5762     409.8082   1415.04089     598.5762     409.8082
   1415.02563     597.0182     409.1099   1415.02563     597.0182     409.1099
   1415.01038     595.1887     408.1399   1415.01038     595.1887     408.1399
   1414.99512     594.9819     406.7292   1414.99512     594.9819     406.7292
   1414.97986     592.4150     406.0405   1414.97986     592.4150     406.0405
   1414.96460     591.5280     405.5656   1414.96460     591.5280     405.5656
   1414.94934     590.6308     405.1716   1414.94934     590.6308     405.1716
   1414.93408     589.0043     404.0128   1414.93408     589.0043     404.0128
   1414.91882     587.7162     402.2210   1414.91882     587.7162     402.2210
   1414.90356     586.7310     401.2320   1414.90356     586.7310     401.2320
   1414.88831     585.1124     401.3191   1414.88831     585.1124     401.3191
   1414.87305     583.2605     399.9872   1414.87305     583.2605     399.9872
   1414.85779     582.4424     399.5160   1414.85779     582.4424     399.5160
   1414.84253     580.6599     398.0284   1414.84253     580.6599     398.0284
   1414.82727     580.0510     397.2885   1414.82727     580.0510     397.2885
   1414.81201     578.4551     396.4424   1414.81201     578.4551     396.4424
   1414.79675     576.1371     395.1711   1414.79675     576.1371     395.1711
   1414.78149     574.9094     394.5496   1414.78149     574.9094     394.5496
   1414.76624     572.2070     393.6132   1414.76624     572.2070     393.6132
   1414.75098     571.4669     392.8586   1414.75098     571.4669     392.8586
   1414.73572     571.3727     391.1346   1414.73572     571.3727     391.1346
   1414.72046     568.8671     390.0421   1414.72046     568.8671     390.0421
   1414.70520     567.2346     388.9231   1414.70520     567.2346     388.9231
   1414.68994     565.7529     387.9944   1414.68994     565.7529     387.9944
   1414.67468     564.0294     386.9824   1414.67468     564.0294     386.9824
   1414.65942     562.3166     385.9305   1414.65942     562.3166     385.9305
   1414.64417     560.6869     385.0336   1414.64417     560.6869     385.0336
   1414.62891     559.0501     383.7698   1414.62891     559.0501     383.7698
   1414.61365     557.1945     382.9055   1414.61365     557.1945     382.9055
   1414.59839     556.4393     381.8361   1414.59839     556.4393     381.8361
   1414.58313     553.2926     380.3485   1414.58313     553.2926     380.3485
   1414.56787     553.0449     380.4218   1414.56787     553.0449     380.4218
   1414.55261     550.1993     378.9099   1414.55261     550.1993     378.9099
   1414.53735     548.3069     376.9318   1414.53735     548.3069     376.9318
   1414.52209     546.8134     376.3164   1414.52209     546.8134     376.3164
   1414.50684     544.8304     374.8040   1414.50684     544.8304     374.8040
   1414.49158     542.9337     372.4038   1414.49158     542.9337     372.4038
   1414.47632     541.6649     372.3976   1414.47632     541.6649     372.3976
   1414.46106     539.9160     371.2030   1414.46106     539.9160     371.2030
   1414.44580     536.9130     370.6714   1414.44580     536.9130     370.6714
   1414.43054     535.6378     369.2209   1414.43054     535.6378     369.2209
   1414.41528     533.3171     368.2581   1414.41528     533.3171     368.2581
   1414.40002     531.9017     367.0515   1414.40002     531.9017     367.0515
   1414.38477     529.9510     365.1263   1414.38477     529.9510     365.1263
   1414.36951     527.8381     364.1454   1414.36951     527.8381     364.1454
   1414.35425     526.8215     363.4094   1414.35425     526.8215     363.4094
   1414.33899     523.5934     361.8300   1414.33899     523.5934     361.8300
   1414.32373     521.7636     360.8484   1414.32373     521.7636     360.8484
   1414.30847     520.6920     359.7857   1414.30847     520.6920     359.7857
   1414.29321     518.0327     358.1440   1414.29321     518.0327     358.1440
   1414.27795     516.8306     357.1476   1414.27795     516.8306     357.1476
   1414.26270     513.4014     355.4704   1414.26270     513.4014     355.4704
   1414.24744     511.0761     354.5978   1414.24744     511.0761     354.5978
   1414.23218     510.6491     353.4530   1414.23218     510.6491     353.4530
   1414.21692     507.7613     351.5194   1414.21692     507.7613     351.5194
   1414.20166     506.2027     350.8829   1414.20166     506.2027     350.8829
   1414.18640     503.2152     349.4082   1414.18640     503.2152     349.4082
   1414.17114     501.7404     347.7621   1414.17114     501.7404     347.7621
   1414.15588     499.8400     346.6837   1414.15588     499.8400     346.6837
   1414.14062     497.5157     345.2340   1414.14062     497.5157     345.2340
   1414.12537     495.0279     343.8779   1414.12537     495.0279     343.8779
   1414.11011     492.5177     342.4721   1414.11011     492.5177     342.4721
   1414.09485     491.0221     340.8000   1414.09485     491.0221     340.8000
   1414.07959     488.5692     339.8065   1414.07959     488.5692     339.8065
   1414.06433     486.3548     338.3340   1414.06433     486.3548     338.3340
   1414.04907     484.0043     336.6906   1414.04907     484.0043     336.6906
   1414.03381     482.6669     335.6645   1414.03381     482.6669     335.6645
   1414.01855     480.8308     334.7769   1414.01855     480.8308     334.7769
   1414.00330     506.6783     342.2045   1414.00330     506.6783     342.2045
   1413.98804     476.7444     332.6250   1413.98804     476.7444     332.6250
   1413.97278     474.0744     330.5358   1413.97278     474.0744     330.5358
   1413.95752     470.5732     328.5156   1413.95752     470.5732     328.5156
   1413.94226     468.7161     327.2298   1413.94226     468.7161     327.2298
   1413.92700     466.5790     326.4037   1413.92700     466.5790     326.4037
   1413.91174     463.7437     324.4673   1413.91174     463.7437     324.4673
   1413.89648     461.1414     322.9197   1413.89648     461.1414     322.9197
   1413.88123     458.9717     322.0794   1413.88123     458.9717     322.0794
   1413.86597     456.2751     320.4816   1413.86597     456.2751     320.4816
   1413.85071     454.6286     318.9693   1413.85071     454.6286     318.9693
   1413.83545     453.1880     317.6500   1413.83545     453.1880     317.6500
   1413.82019     450.2478     315.6261   1413.82019     450.2478     315.6261
   1413.80493     447.3766     314.8256   1413.80493     447.3766     314.8256
   1413.78967     444.9822     313.1511   1413.78967     444.9822     313.1511
   1413.77441     443.5175     311.8035   1413.77441     443.5175     311.8035
   1413.75916     441.0331     311.0721   1413.75916     441.0331     311.0721
   1413.74390     438.3107     309.2638   1413.74390     438.3107     309.2638
   1413.72864     436.9119     307.9806   1413.72864     436.9119     307.9806
   1413.71338     433.9449     306.2570   1413.71338     433.9449     306.2570
   1413.69812     431.3205     304.9308   1413.69812     431.3205     304.9308
   1413.68286     429.1534     303.4844   1413.68286     429.1534     303.4844
   1413.66760     426.5145     302.3909   1413.66760     426.5145     302.3909
   1413.65234     424.8681     301.3937   1413.65234     424.8681     301.3937
   1413.63708     422.2996     299.3032   1413.63708     422.2996     299.3032
   1413.62183     419.9411     298.0434   1413.62183     419.9411     298.0434
   1413.60657     417.2507     296.3473   1413.60657     417.2507     296.3473
   1413.59131     415.4382     295.0579   1413.59131     415.4382     295.0579
   1413.57605     412.9457     293.7917   1413.57605     412.9457     293.7917
   1413.56079     411.1618     292.5806   1413.56079     411.1618     292.5806
   1413.54553     408.9319     291.4041   1413.54553     408.9319     291.4041
   1413.53027     406.2836     289.8576   1413.53027     406.2836     289.8576
   1413.51501     403.8158     288.4434   1413.51501     403.8158     288.4434
   1413.49976     401.7315     287.0236   1413.49976     401.7315     287.0236
   1413.48450     399.8187     286.3796   1413.48450     399.8187     286.3796
   1413.46924     397.5615     284.4709   1413.46924     397.5615     284.4709
   1413.45398     395.2761     283.1779   1413.45398     395.2761     283.1779
   1413.43872     393.1786     281.9872   1413.43872     393.1786     281.9872
   1413.42346     390.7135     280.8271   1413.42346     390.7135     280.8271
   1413.40820     388.3212     279.1604   1413.40820     388.3212     279.1604
   1413.39294     385.9364     277.9799   1413.39294     385.9364     277.9799
   1413.37769     384.2126     276.8461   1413.37769     384.2126     276.8461
   1413.36243     382.0395     275.8449   1413.36243     382.0395     275.8449
   1413.34717     379.2397     274.4533   1413.34717     379.2397     274.4533
   1413.33191     377.5946     273.0460   1413.33191     377.5946     273.0460
   1413.31665     375.0184     271.4523   1413.31665     375.0184     271.4523
   1413.30139     373.0464     269.9947   1413.30139     373.0464     269.9947
   1413.28613     371.2723     269.3743   1413.28613     371.2723     269.3743
   1413.27087     369.0006     268.0493   1413.27087     369.0006     268.0493
   1413.25562     367.0640     266.9902   1413.25562     367.0640     266.9902
   1413.24036     364.5104     265.9432   1413.24036     364.5104     265.9432
   1413.22510     363.0159     264.4777   1413.22510     363.0159     264.4777
   1413.20984     360.8279     263.4213   1413.20984     360.8279     263.4213
   1413.19458     358.5613     262.3847   1413.19458     358.5613     262.3847
   1413.17932     357.0696     261.7246   1413.17932     357.0696     261.7246
   1413.16406     355.0587     260.1356   1413.16406     355.0587     260.1356
   1413.14880     353.0885     259.6780   1413.14880     353.0885     259.6780
   1413.13354     350.6876     258.7422   1413.13354     350.6876     258.7422
   1413.11829     349.3385     257.6300   1413.11829     349.3385     257.6300
   1413.10303     347.6040     256.5877   1413.10303     347.6040     256.5877
   1413.08777     345.8290     254.7121   1413.08777     345.8290     254.7121
   1413.07251     343.6180     254.4949   1413.07251     343.6180     254.4949
   1413.05725     341.9164     253.4789   1413.05725     341.9164     253.4789
   1413.04199     339.9715     251.9466   1413.04199     339.9715     251.9466
   1413.02673     338.2527     251.7623   1413.02673     338.2527     251.7623
   1413.01147     336.5942     251.1542   1413.01147     336.5942     251.1542
   1412.99622     335.4947     250.1290   1412.99622     335.4947     250.1290
   1412.98096     333.1169     248.9928   1412.98096     333.1169     248.9928
   1412.96570     332.2695     248.2436   1412.96570     332.2695     248.2436
   1412.95044     330.1917     247.3211   1412.95044     330.1917     247.3211
   1412.93518     329.1178     246.9588   1412.93518     329.1178     246.9588
   1412.91992     327.3206     246.1228   1412.91992     327.3206     246.1228
   1412.90466     325.8082     245.4206   1412.90466     325.8082     245.4206
   1412.88940     324.0507     244.8750   1412.88940     324.0507     244.8750
   1412.87415     323.1365     243.8387   1412.87415     323.1365     243.8387
   1412.85889     321.2635     243.6983   1412.85889     321.2635     243.6983
   1412.84363     320.4546     243.3717   1412.84363     320.4546     243.3717
   1412.82837     319.0706     242.4832   1412.82837     319.0706     242.4832
   1412.81311     317.7052     241.4665   1412.81311     317.7052     241.4665
   1412.79785     316.7436     241.2521   1412.79785     316.7436     241.2521
   1412.78259     315.3273     240.8056   1412.78259     315.3273     240.8056
   1412.76733     314.1734     240.9668   1412.76733     314.1734     240.9668
   1412.75208     313.1840     240.0649   1412.75208     313.1840     240.0649
   1412.73682     312.2098     239.8280   1412.73682     312.2098     239.8280
   1412.72156     310.8532     239.2365   1412.72156     310.8532     239.2365
   1412.70630     310.3005     238.7615   1412.70630     310.3005     238.7615
   1412.69104     309.0481     239.1297   1412.69104     309.0481     239.1297
   1412.67578     307.9185     238.1775   1412.67578     307.9185     238.1775
   1412.66052     307.2874     237.8447   1412.66052     307.2874     237.8447
   1412.64526     306.0440     238.2374   1412.64526     306.0440     238.2374
   1412.63000     305.4758     237.9597   1412.63000     305.4758     237.9597
   1412.61475     305.0180     238.2070   1412.61475     305.0180     238.2070
   1412.59949     303.1427     237.3868   1412.59949     303.1427     237.3868
   1412.58423     303.1822     237.9402   1412.58423     303.1822     237.9402
   1412.56897     302.9206     237.8227   1412.56897     302.9206     237.8227
   1412.55371     301.9982     237.5678   1412.55371     301.9982     237.5678
   1412.53845     301.2992     237.1490   1412.53845     301.2992     237.1490
   1412.52319     300.8880     238.0056   1412.52319     300.8880     238.0056
   1412.50793     300.3800     238.0358   1412.50793     300.3800     238.0358
   1412.49268     299.5643     238.0892   1412.49268     299.5643     238.0892
   1412.47742     299.4529     238.2894   1412.47742     299.4529     238.2894
   1412.46216     299.2457     238.4468   1412.46216     299.2457     238.4468
   1412.44690     298.6408     238.9308   1412.44690     298.6408     238.9308
   1412.43164     298.7820     238.6743   1412.43164     298.7820     238.6743
   1412.41638     298.3835     239.2130   1412.41638     298.3835     239.2130
   1412.40112     297.9661     239.7644   1412.40112     297.9661     239.7644
   1412.38586     298.0296     240.5229   1412.38586     298.0296     240.5229
   1412.37061     298.2009     240.5883   1412.37061     298.2009     240.5883
   1412.35535     298.2373     240.9670   1412.35535     298.2373     240.9670
   1412.34009     298.5034     241.7538   1412.34009     298.5034     241.7538
   1412.32483     298.5482     242.4538   1412.32483     298.5482     242.4538
   1412.30957     298.0921     242.8902   1412.30957     298.0921     242.8902
   1412.29431     298.3546     243.3425   1412.29431     298.3546     243.3425
   1412.27905     298.5900     244.1184   1412.27905     298.5900     244.1184
   1412.26379     298.8416     244.6674   1412.26379     298.8416     244.6674
   1412.24854     298.9300     245.4894   1412.24854     298.9300     245.4894
   1412.23328     300.0104     246.1066   1412.23328     300.0104     246.1066
   1412.21802     300.0199     247.3615   1412.21802     300.0199     247.3615
   1412.20276     300.4191     248.1743   1412.20276     300.4191     248.1743