#     FILENAME=!Skynet_57528_lach-hhg-175_20561_20998.cyb.fits
#     BASENAME=Skynet_57528_lach-hhg-175_20561_20998
#     SRC_NAME=lach-hhg-175
#     OBSERVER=hhgmadison16_9500
#     DATE_OBS=2016-05-20T18:30:08.000
#        OBSID=20561
#      SCANNUM=20998
#          MJD=57528.7720
#          UTC=66696
#     SCANTYPE=track
#     DATAMODE=HIRES
#     TUNEFREQ=1420.0000
# Actual_FREQ1=1420.0000
# Actual_FREQ2=1420.0000
#    LO1Tuning=6870.000
#     RFFILTER=1355_1435
#        OBSBW=-15.6250
#        NCHAN=1024 
#        FOCUS=37.0709
#           RA=05:33:08.36
#          DEC=33:10:03.89
#      RA(hrs)=5.552300
#     DEC(deg)=33.167700
#    AZIM(deg)=130.338
#    ELEV(deg)=82.165
#     IFattens=10.00, 9.00
#      WARNING=None
#    TCAL_XL1=7.9635
#    TCAL_YR1=9.1340
#    TCAL_XL2=7.9635
#    TCAL_YR2=9.1340
#     TRX_XL1=11.7060
#     TRX_YR1=11.7060
#     TRX_XL2=11.7060
#     TRX_YR2=11.7060
#        TAVE=1.0000
#Freq1(MHz)          XL1          YR1  Freq2(MHz)          XL2          YR2 

   1427.81250     380.5395     343.6141   1427.81250     380.5395     343.6141
   1427.79724     381.2764     345.9149   1427.79724     381.2764     345.9149
   1427.78198     380.7744     347.4613   1427.78198     380.7744     347.4613
   1427.76672     382.8212     349.0146   1427.76672     382.8212     349.0146
   1427.75146     382.9140     350.6479   1427.75146     382.9140     350.6479
   1427.73621     383.9680     352.9641   1427.73621     383.9680     352.9641
   1427.72095     385.2066     355.1620   1427.72095     385.2066     355.1620
   1427.70569     385.7116     356.6616   1427.70569     385.7116     356.6616
   1427.69043     387.6621     358.8036   1427.69043     387.6621     358.8036
   1427.67517     388.2909     360.8875   1427.67517     388.2909     360.8875
   1427.65991     389.4286     363.2305   1427.65991     389.4286     363.2305
   1427.64465     389.9810     365.5163   1427.64465     389.9810     365.5163
   1427.62939     391.9535     367.2511   1427.62939     391.9535     367.2511
   1427.61414     392.6052     369.9640   1427.61414     392.6052     369.9640
   1427.59888     394.0060     371.6304   1427.59888     394.0060     371.6304
   1427.58362     395.3112     374.2496   1427.58362     395.3112     374.2496
   1427.56836     396.7074     376.7235   1427.56836     396.7074     376.7235
   1427.55310     398.2496     378.8075   1427.55310     398.2496     378.8075
   1427.53784     399.8029     381.1698   1427.53784     399.8029     381.1698
   1427.52258     401.6299     383.9594   1427.52258     401.6299     383.9594
   1427.50732     403.2643     386.8376   1427.50732     403.2643     386.8376
   1427.49207     404.6756     389.4417   1427.49207     404.6756     389.4417
   1427.47681     406.4033     391.6348   1427.47681     406.4033     391.6348
   1427.46155     408.4146     394.9930   1427.46155     408.4146     394.9930
   1427.44629     410.1294     396.4186   1427.44629     410.1294     396.4186
   1427.43103     411.5260     399.5249   1427.43103     411.5260     399.5249
   1427.41577     413.8299     402.3076   1427.41577     413.8299     402.3076
   1427.40051     415.7955     405.2673   1427.40051     415.7955     405.2673
   1427.38525     417.6816     407.3873   1427.38525     417.6816     407.3873
   1427.37000     419.6221     410.7816   1427.37000     419.6221     410.7816
   1427.35474     421.9174     413.8287   1427.35474     421.9174     413.8287
   1427.33948     422.9235     416.0851   1427.33948     422.9235     416.0851
   1427.32422     426.1923     419.6149   1427.32422     426.1923     419.6149
   1427.30896     428.1161     422.1324   1427.30896     428.1161     422.1324
   1427.29370     430.6527     425.1210   1427.29370     430.6527     425.1210
   1427.27844     433.0510     427.6301   1427.27844     433.0510     427.6301
   1427.26318     434.7962     431.2474   1427.26318     434.7962     431.2474
   1427.24792     437.1298     434.2612   1427.24792     437.1298     434.2612
   1427.23267     439.7759     437.5808   1427.23267     439.7759     437.5808
   1427.21741     442.5406     440.3900   1427.21741     442.5406     440.3900
   1427.20215     444.7531     443.7496   1427.20215     444.7531     443.7496
   1427.18689     447.4250     446.8129   1427.18689     447.4250     446.8129
   1427.17163     449.8387     449.7289   1427.17163     449.8387     449.7289
   1427.15637     452.0088     451.7755   1427.15637     452.0088     451.7755
   1427.14111     454.4683     455.3560   1427.14111     454.4683     455.3560
   1427.12585     457.4090     458.5536   1427.12585     457.4090     458.5536
   1427.11060     460.0878     461.1973   1427.11060     460.0878     461.1973
   1427.09534     462.5819     464.3007   1427.09534     462.5819     464.3007
   1427.08008     465.7043     467.7723   1427.08008     465.7043     467.7723
   1427.06482     468.0991     471.1883   1427.06482     468.0991     471.1883
   1427.04956     470.8793     473.8331   1427.04956     470.8793     473.8331
   1427.03430     473.9782     477.4017   1427.03430     473.9782     477.4017
   1427.01904     476.3565     480.5209   1427.01904     476.3565     480.5209
   1427.00378     478.8258     483.0700   1427.00378     478.8258     483.0700
   1426.98853     482.5199     485.8333   1426.98853     482.5199     485.8333
   1426.97327     485.2253     489.1885   1426.97327     485.2253     489.1885
   1426.95801     488.3803     492.5433   1426.95801     488.3803     492.5433
   1426.94275     490.7447     495.2840   1426.94275     490.7447     495.2840
   1426.92749     493.0583     499.0839   1426.92749     493.0583     499.0839
   1426.91223     496.7169     501.3881   1426.91223     496.7169     501.3881
   1426.89697     499.9889     504.2001   1426.89697     499.9889     504.2001
   1426.88171     503.4426     507.5912   1426.88171     503.4426     507.5912
   1426.86646     506.2356     510.3686   1426.86646     506.2356     510.3686
   1426.85120     509.2330     513.6012   1426.85120     509.2330     513.6012
   1426.83594     511.1205     515.3085   1426.83594     511.1205     515.3085
   1426.82068     515.0841     518.1605   1426.82068     515.0841     518.1605
   1426.80542     517.6671     521.6473   1426.80542     517.6671     521.6473
   1426.79016     520.3158     524.3708   1426.79016     520.3158     524.3708
   1426.77490     524.5700     527.7602   1426.77490     524.5700     527.7602
   1426.75964     527.5624     530.0811   1426.75964     527.5624     530.0811
   1426.74438     529.8853     533.9473   1426.74438     529.8853     533.9473
   1426.72913     533.0883     534.9199   1426.72913     533.0883     534.9199
   1426.71387     536.6880     537.8171   1426.71387     536.6880     537.8171
   1426.69861     538.7136     541.0106   1426.69861     538.7136     541.0106
   1426.68335     542.5153     543.1119   1426.68335     542.5153     543.1119
   1426.66809     545.5092     547.5095   1426.66809     545.5092     547.5095
   1426.65283     549.6465     549.6295   1426.65283     549.6465     549.6295
   1426.63757     552.4521     551.5459   1426.63757     552.4521     551.5459
   1426.62231     554.9104     555.4633   1426.62231     554.9104     555.4633
   1426.60706     558.1530     557.5180   1426.60706     558.1530     557.5180
   1426.59180     561.8904     560.0267   1426.59180     561.8904     560.0267
   1426.57654     564.2878     561.5743   1426.57654     564.2878     561.5743
   1426.56128     568.1715     564.4637   1426.56128     568.1715     564.4637
   1426.54602     570.0735     567.1985   1426.54602     570.0735     567.1985
   1426.53076     573.4242     570.2903   1426.53076     573.4242     570.2903
   1426.51550     576.5680     572.1653   1426.51550     576.5680     572.1653
   1426.50024     579.5997     573.2923   1426.50024     579.5997     573.2923
   1426.48499     582.2805     576.6766   1426.48499     582.2805     576.6766
   1426.46973     586.1790     578.4856   1426.46973     586.1790     578.4856
   1426.45447     589.3534     580.4801   1426.45447     589.3534     580.4801
   1426.43921     591.6649     583.0844   1426.43921     591.6649     583.0844
   1426.42395     595.6912     585.4423   1426.42395     595.6912     585.4423
   1426.40869     598.2374     586.7011   1426.40869     598.2374     586.7011
   1426.39343     601.1147     590.1271   1426.39343     601.1147     590.1271
   1426.37817     604.8621     591.9660   1426.37817     604.8621     591.9660
   1426.36292     606.8769     593.7158   1426.36292     606.8769     593.7158
   1426.34766     610.0043     595.2842   1426.34766     610.0043     595.2842
   1426.33240     613.3091     597.2471   1426.33240     613.3091     597.2471
   1426.31714     617.3823     599.2626   1426.31714     617.3823     599.2626
   1426.30188     619.7604     601.7787   1426.30188     619.7604     601.7787
   1426.28662     622.7662     602.7477   1426.28662     622.7662     602.7477
   1426.27136     625.2605     604.7195   1426.27136     625.2605     604.7195
   1426.25610     628.5179     607.7578   1426.25610     628.5179     607.7578
   1426.24084     631.9443     608.2566   1426.24084     631.9443     608.2566
   1426.22559     633.1113     610.1252   1426.22559     633.1113     610.1252
   1426.21033     635.4525     612.3542   1426.21033     635.4525     612.3542
   1426.19507     639.5719     614.0162   1426.19507     639.5719     614.0162
   1426.17981     642.3456     615.9897   1426.17981     642.3456     615.9897
   1426.16455     645.4801     617.0192   1426.16455     645.4801     617.0192
   1426.14929     647.9352     618.0012   1426.14929     647.9352     618.0012
   1426.13403     650.9238     620.9217   1426.13403     650.9238     620.9217
   1426.11877     652.5058     621.8480   1426.11877     652.5058     621.8480
   1426.10352     655.8929     623.2290   1426.10352     655.8929     623.2290
   1426.08826     659.2058     624.3514   1426.08826     659.2058     624.3514
   1426.07300     660.2845     625.1915   1426.07300     660.2845     625.1915
   1426.05774     663.6667     626.8903   1426.05774     663.6667     626.8903
   1426.04248     667.2231     628.6495   1426.04248     667.2231     628.6495
   1426.02722     668.8166     630.4976   1426.02722     668.8166     630.4976
   1426.01196     671.5706     630.7098   1426.01196     671.5706     630.7098
   1425.99670     673.9744     632.5372   1425.99670     673.9744     632.5372
   1425.98145     676.3466     632.8893   1425.98145     676.3466     632.8893
   1425.96619     678.7469     635.0974   1425.96619     678.7469     635.0974
   1425.95093     680.3037     635.3832   1425.95093     680.3037     635.3832
   1425.93567     683.6815     636.9442   1425.93567     683.6815     636.9442
   1425.92041     685.4941     638.2635   1425.92041     685.4941     638.2635
   1425.90515     688.4409     639.6303   1425.90515     688.4409     639.6303
   1425.88989     691.5557     639.5659   1425.88989     691.5557     639.5659
   1425.87463     692.4417     641.1447   1425.87463     692.4417     641.1447
   1425.85938     695.3212     641.9648   1425.85938     695.3212     641.9648
   1425.84412     697.2556     643.9954   1425.84412     697.2556     643.9954
   1425.82886     698.9041     644.4864   1425.82886     698.9041     644.4864
   1425.81360     702.1016     646.2110   1425.81360     702.1016     646.2110
   1425.79834     704.3906     645.7734   1425.79834     704.3906     645.7734
   1425.78308     706.6844     647.0878   1425.78308     706.6844     647.0878
   1425.76782     707.4645     646.7953   1425.76782     707.4645     646.7953
   1425.75256     709.5340     648.4863   1425.75256     709.5340     648.4863
   1425.73730     711.9501     649.1586   1425.73730     711.9501     649.1586
   1425.72205     713.1834     649.1134   1425.72205     713.1834     649.1134
   1425.70679     715.5831     649.3854   1425.70679     715.5831     649.3854
   1425.69153     717.6964     650.7249   1425.69153     717.6964     650.7249
   1425.67627     719.6901     651.4437   1425.67627     719.6901     651.4437
   1425.66101     721.8705     651.2353   1425.66101     721.8705     651.2353
   1425.64575     723.6823     653.5397   1425.64575     723.6823     653.5397
   1425.63049     725.2013     651.6557   1425.63049     725.2013     651.6557
   1425.61523     726.7434     653.3464   1425.61523     726.7434     653.3464
   1425.59998     727.9362     654.2774   1425.59998     727.9362     654.2774
   1425.58472     728.7220     653.5966   1425.58472     728.7220     653.5966
   1425.56946     731.3606     654.3264   1425.56946     731.3606     654.3264
   1425.55420     732.1547     655.1924   1425.55420     732.1547     655.1924
   1425.53894     733.9227     655.1185   1425.53894     733.9227     655.1185
   1425.52368     735.8608     656.2156   1425.52368     735.8608     656.2156
   1425.50842     738.0366     655.8712   1425.50842     738.0366     655.8712
   1425.49316     739.0811     656.3383   1425.49316     739.0811     656.3383
   1425.47791     740.7461     657.5092   1425.47791     740.7461     657.5092
   1425.46265     742.9457     657.9619   1425.46265     742.9457     657.9619
   1425.44739     743.6027     656.8054   1425.44739     743.6027     656.8054
   1425.43213     743.6995     658.3979   1425.43213     743.6995     658.3979
   1425.41687     747.3102     658.6772   1425.41687     747.3102     658.6772
   1425.40161     747.2227     658.2363   1425.40161     747.2227     658.2363
   1425.38635     747.7137     658.0658   1425.38635     747.7137     658.0658
   1425.37109     750.1755     659.0798   1425.37109     750.1755     659.0798
   1425.35583     751.5507     658.1075   1425.35583     751.5507     658.1075
   1425.34058     752.8738     657.4717   1425.34058     752.8738     657.4717
   1425.32532     752.6416     658.5616   1425.32532     752.6416     658.5616
   1425.31006     754.8839     658.3230   1425.31006     754.8839     658.3230
   1425.29480     753.8853     658.3398   1425.29480     753.8853     658.3398
   1425.27954     756.7539     658.2517   1425.27954     756.7539     658.2517
   1425.26428     757.0549     659.5318   1425.26428     757.0549     659.5318
   1425.24902     758.7319     658.2505   1425.24902     758.7319     658.2505
   1425.23376     759.2701     658.5151   1425.23376     759.2701     658.5151
   1425.21851     759.4877     659.1682   1425.21851     759.4877     659.1682
   1425.20325     760.8712     657.3926   1425.20325     760.8712     657.3926
   1425.18799     762.0434     657.8577   1425.18799     762.0434     657.8577
   1425.17273     763.0999     658.2779   1425.17273     763.0999     658.2779
   1425.15747     764.2465     658.0880   1425.15747     764.2465     658.0880
   1425.14221     764.3769     657.4158   1425.14221     764.3769     657.4158
   1425.12695     765.2769     656.3649   1425.12695     765.2769     656.3649
   1425.11169     766.1266     658.5114   1425.11169     766.1266     658.5114
   1425.09644     766.8322     657.1571   1425.09644     766.8322     657.1571
   1425.08118     766.9077     656.8307   1425.08118     766.9077     656.8307
   1425.06592     768.6407     656.6557   1425.06592     768.6407     656.6557
   1425.05066     768.3758     656.4481   1425.05066     768.3758     656.4481
   1425.03540     767.6536     655.5142   1425.03540     767.6536     655.5142
   1425.02014     768.1939     657.3300   1425.02014     768.1939     657.3300
   1425.00488     769.5426     655.6386   1425.00488     769.5426     655.6386
   1424.98962     770.6951     655.4199   1424.98962     770.6951     655.4199
   1424.97437     770.6407     655.2044   1424.97437     770.6407     655.2044
   1424.95911     771.2079     654.6995   1424.95911     771.2079     654.6995
   1424.94385     770.7307     654.4962   1424.94385     770.7307     654.4962
   1424.92859     771.5790     653.1360   1424.92859     771.5790     653.1360
   1424.91333     772.1446     654.4730   1424.91333     772.1446     654.4730
   1424.89807     771.8295     653.0911   1424.89807     771.8295     653.0911
   1424.88281     772.2939     652.8481   1424.88281     772.2939     652.8481
   1424.86755     773.4952     653.7692   1424.86755     773.4952     653.7692
   1424.85229     772.8072     652.2021   1424.85229     772.8072     652.2021
   1424.83704     773.1786     652.0534   1424.83704     773.1786     652.0534
   1424.82178     773.6394     651.2193   1424.82178     773.6394     651.2193
   1424.80652     773.4542     651.1105   1424.80652     773.4542     651.1105
   1424.79126     773.4913     650.6479   1424.79126     773.4913     650.6479
   1424.77600     773.6061     649.6547   1424.77600     773.6061     649.6547
   1424.76074     774.2528     648.5494   1424.76074     774.2528     648.5494
   1424.74548     774.6964     650.2559   1424.74548     774.6964     650.2559
   1424.73022     774.6429     648.9502   1424.73022     774.6429     648.9502
   1424.71497     772.9532     647.3091   1424.71497     772.9532     647.3091
   1424.69971     774.3195     648.2299   1424.69971     774.3195     648.2299
   1424.68445     774.2134     646.6586   1424.68445     774.2134     646.6586
   1424.66919     774.2365     646.9941   1424.66919     774.2365     646.9941
   1424.65393     774.4482     645.4895   1424.65393     774.4482     645.4895
   1424.63867     774.4155     645.1600   1424.63867     774.4155     645.1600
   1424.62341     773.8633     644.8287   1424.62341     773.8633     644.8287
   1424.60815     773.9380     644.3844   1424.60815     773.9380     644.3844
   1424.59290     774.6301     644.0019   1424.59290     774.6301     644.0019
   1424.57764     774.1908     643.0815   1424.57764     774.1908     643.0815
   1424.56238     774.2173     641.6257   1424.56238     774.2173     641.6257
   1424.54712     774.9724     641.4955   1424.54712     774.9724     641.4955
   1424.53186     773.2397     641.0302   1424.53186     773.2397     641.0302
   1424.51660     773.9519     640.0426   1424.51660     773.9519     640.0426
   1424.50134     775.1308     639.7272   1424.50134     775.1308     639.7272
   1424.48608     773.1310     640.4356   1424.48608     773.1310     640.4356
   1424.47083     773.3063     637.6783   1424.47083     773.3063     637.6783
   1424.45557     772.9102     638.6796   1424.45557     772.9102     638.6796
   1424.44031     773.5944     637.5347   1424.44031     773.5944     637.5347
   1424.42505     772.0109     638.4250   1424.42505     772.0109     638.4250
   1424.40979     771.8139     636.6309   1424.40979     771.8139     636.6309
   1424.39453     770.7286     635.2487   1424.39453     770.7286     635.2487
   1424.37927     771.0381     635.0872   1424.37927     771.0381     635.0872
   1424.36401     771.9945     633.8423   1424.36401     771.9945     633.8423
   1424.34875     771.5266     633.1665   1424.34875     771.5266     633.1665
   1424.33350     770.7954     633.1887   1424.33350     770.7954     633.1887
   1424.31824     771.6121     632.1385   1424.31824     771.6121     632.1385
   1424.30298     769.8112     632.2881   1424.30298     769.8112     632.2881
   1424.28772     771.2493     631.1066   1424.28772     771.2493     631.1066
   1424.27246     769.1509     630.0338   1424.27246     769.1509     630.0338
   1424.25720     769.5388     630.3024   1424.25720     769.5388     630.3024
   1424.24194     768.7749     628.4341   1424.24194     768.7749     628.4341
   1424.22668     767.4766     628.3361   1424.22668     767.4766     628.3361
   1424.21143     767.8488     627.9239   1424.21143     767.8488     627.9239
   1424.19617     768.1249     627.2107   1424.19617     768.1249     627.2107
   1424.18091     767.4122     626.7787   1424.18091     767.4122     626.7787
   1424.16565     768.6336     625.6108   1424.16565     768.6336     625.6108
   1424.15039     767.2884     624.9490   1424.15039     767.2884     624.9490
   1424.13513     765.4134     624.4443   1424.13513     765.4134     624.4443
   1424.11987     765.8281     623.9980   1424.11987     765.8281     623.9980
   1424.10461     765.5562     621.8537   1424.10461     765.5562     621.8537
   1424.08936     765.3950     621.9874   1424.08936     765.3950     621.9874
   1424.07410     765.1713     621.2605   1424.07410     765.1713     621.2605
   1424.05884     763.9379     620.4804   1424.05884     763.9379     620.4804
   1424.04358     764.5865     620.1808   1424.04358     764.5865     620.1808
   1424.02832     763.6617     618.9888   1424.02832     763.6617     618.9888
   1424.01306     762.5596     618.3016   1424.01306     762.5596     618.3016
   1423.99780     762.0259     618.2867   1423.99780     762.0259     618.2867
   1423.98254     761.9213     617.1832   1423.98254     761.9213     617.1832
   1423.96729     762.3920     617.1279   1423.96729     762.3920     617.1279
   1423.95203     762.1722     615.8102   1423.95203     762.1722     615.8102
   1423.93677     760.5261     614.6074   1423.93677     760.5261     614.6074
   1423.92151     760.9973     613.8934   1423.92151     760.9973     613.8934
   1423.90625     760.8151     613.9913   1423.90625     760.8151     613.9913
   1423.89099     759.6296     612.8939   1423.89099     759.6296     612.8939
   1423.87573     758.4198     611.8835   1423.87573     758.4198     611.8835
   1423.86047     758.8271     612.1422   1423.86047     758.8271     612.1422
   1423.84521     757.4605     610.6385   1423.84521     757.4605     610.6385
   1423.82996     757.7350     610.0558   1423.82996     757.7350     610.0558
   1423.81470     757.3096     609.1386   1423.81470     757.3096     609.1386
   1423.79944     756.4095     608.4473   1423.79944     756.4095     608.4473
   1423.78418     755.5004     608.2753   1423.78418     755.5004     608.2753
   1423.76892     755.3526     607.1094   1423.76892     755.3526     607.1094
   1423.75366     755.7241     606.8882   1423.75366     755.7241     606.8882
   1423.73840     754.9361     604.9332   1423.73840     754.9361     604.9332
   1423.72314     754.4391     605.0289   1423.72314     754.4391     605.0289
   1423.70789     753.7510     604.7741   1423.70789     753.7510     604.7741
   1423.69263     753.6710     602.6556   1423.69263     753.6710     602.6556
   1423.67737     753.0739     602.2699   1423.67737     753.0739     602.2699
   1423.66211     752.7672     601.6006   1423.66211     752.7672     601.6006
   1423.64685     752.5621     601.2988   1423.64685     752.5621     601.2988
   1423.63159     751.4336     601.1720   1423.63159     751.4336     601.1720
   1423.61633     751.5828     599.6859   1423.61633     751.5828     599.6859
   1423.60107     751.1657     599.3507   1423.60107     751.1657     599.3507
   1423.58582     750.2750     598.1442   1423.58582     750.2750     598.1442
   1423.57056     750.0501     596.5465   1423.57056     750.0501     596.5465
   1423.55530     749.0870     595.9736   1423.55530     749.0870     595.9736
   1423.54004     748.8464     595.4398   1423.54004     748.8464     595.4398
   1423.52478     748.5750     595.0427   1423.52478     748.5750     595.0427
   1423.50952     747.2296     593.6831   1423.50952     747.2296     593.6831
   1423.49426     748.1824     593.1474   1423.49426     748.1824     593.1474
   1423.47900     747.3927     592.8314   1423.47900     747.3927     592.8314
   1423.46375     747.5280     591.7567   1423.46375     747.5280     591.7567
   1423.44849     746.0262     591.3429   1423.44849     746.0262     591.3429
   1423.43323     745.9293     589.3288   1423.43323     745.9293     589.3288
   1423.41797     746.2337     589.3137   1423.41797     746.2337     589.3137
   1423.40271     745.5385     589.3945   1423.40271     745.5385     589.3945
   1423.38745     745.3436     587.8860   1423.38745     745.3436     587.8860
   1423.37219     745.7428     587.4703   1423.37219     745.7428     587.4703
   1423.35693     744.4046     586.9924   1423.35693     744.4046     586.9924
   1423.34167     743.8821     586.5471   1423.34167     743.8821     586.5471
   1423.32642     742.7424     585.1940   1423.32642     742.7424     585.1940
   1423.31116     743.3317     584.6928   1423.31116     743.3317     584.6928
   1423.29590     742.5493     582.8063   1423.29590     742.5493     582.8063
   1423.28064     742.2367     582.7896   1423.28064     742.2367     582.7896
   1423.26538     741.4973     582.1485   1423.26538     741.4973     582.1485
   1423.25012     741.1663     581.9939   1423.25012     741.1663     581.9939
   1423.23486     741.4903     580.6445   1423.23486     741.4903     580.6445
   1423.21960     740.3035     579.6428   1423.21960     740.3035     579.6428
   1423.20435     739.8857     578.9863   1423.20435     739.8857     578.9863
   1423.18909     739.6112     577.8528   1423.18909     739.6112     577.8528
   1423.17383     740.0666     576.5771   1423.17383     740.0666     576.5771
   1423.15857     739.7955     575.8795   1423.15857     739.7955     575.8795
   1423.14331     738.9219     576.3214   1423.14331     738.9219     576.3214
   1423.12805     736.9669     573.9745   1423.12805     736.9669     573.9745
   1423.11279     738.5981     572.7173   1423.11279     738.5981     572.7173
   1423.09753     738.5845     572.8975   1423.09753     738.5845     572.8975
   1423.08228     738.7962     572.4203   1423.08228     738.7962     572.4203
   1423.06702     737.4767     572.2104   1423.06702     737.4767     572.2104
   1423.05176     737.0272     570.4996   1423.05176     737.0272     570.4996
   1423.03650     735.7689     569.7661   1423.03650     735.7689     569.7661
   1423.02124     736.0995     568.7360   1423.02124     736.0995     568.7360
   1423.00598     736.5709     568.4630   1423.00598     736.5709     568.4630
   1422.99072     735.5732     567.1222   1422.99072     735.5732     567.1222
   1422.97546     734.7517     567.7292   1422.97546     734.7517     567.7292
   1422.96021     734.7424     566.0675   1422.96021     734.7424     566.0675
   1422.94495     734.5041     564.3091   1422.94495     734.5041     564.3091
   1422.92969     734.2119     564.7875   1422.92969     734.2119     564.7875
   1422.91443     734.7036     563.7214   1422.91443     734.7036     563.7214
   1422.89917     733.5737     563.1009   1422.89917     733.5737     563.1009
   1422.88391     733.0204     561.8572   1422.88391     733.0204     561.8572
   1422.86865     733.9819     560.8480   1422.86865     733.9819     560.8480
   1422.85339     732.1570     560.7729   1422.85339     732.1570     560.7729
   1422.83813     733.2142     559.6703   1422.83813     733.2142     559.6703
   1422.82288     731.4755     557.4327   1422.82288     731.4755     557.4327
   1422.80762     733.1348     557.6556   1422.80762     733.1348     557.6556
   1422.79236     732.0545     556.0417   1422.79236     732.0545     556.0417
   1422.77710     731.9346     555.8947   1422.77710     731.9346     555.8947
   1422.76184     731.4289     555.9109   1422.76184     731.4289     555.9109
   1422.74658     730.9257     554.4760   1422.74658     730.9257     554.4760
   1422.73132     730.9036     553.6158   1422.73132     730.9036     553.6158
   1422.71606     730.1472     553.2417   1422.71606     730.1472     553.2417
   1422.70081     730.7411     551.9862   1422.70081     730.7411     551.9862
   1422.68555     730.7206     550.2073   1422.68555     730.7206     550.2073
   1422.67029     730.6801     550.6241   1422.67029     730.6801     550.6241
   1422.65503     730.2243     549.2222   1422.65503     730.2243     549.2222
   1422.63977     729.2433     549.4437   1422.63977     729.2433     549.4437
   1422.62451     730.3217     548.4242   1422.62451     730.3217     548.4242
   1422.60925     729.7031     547.1338   1422.60925     729.7031     547.1338
   1422.59399     728.8391     545.6023   1422.59399     728.8391     545.6023
   1422.57874     728.2966     544.9296   1422.57874     728.2966     544.9296
   1422.56348     728.7272     544.9669   1422.56348     728.7272     544.9669
   1422.54822     729.1752     543.6142   1422.54822     729.1752     543.6142
   1422.53296     728.4328     542.6536   1422.53296     728.4328     542.6536
   1422.51770     726.9518     542.8032   1422.51770     726.9518     542.8032
   1422.50244     727.8144     541.3851   1422.50244     727.8144     541.3851
   1422.48718     727.0164     541.4320   1422.48718     727.0164     541.4320
   1422.47192     727.1772     540.0222   1422.47192     727.1772     540.0222
   1422.45667     727.6074     539.1180   1422.45667     727.6074     539.1180
   1422.44141     727.3276     537.8674   1422.44141     727.3276     537.8674
   1422.42615     727.8572     537.3060   1422.42615     727.8572     537.3060
   1422.41089     727.1254     536.5593   1422.41089     727.1254     536.5593
   1422.39563     726.2344     535.0679   1422.39563     726.2344     535.0679
   1422.38037     727.0723     534.6172   1422.38037     727.0723     534.6172
   1422.36511     726.4229     533.6523   1422.36511     726.4229     533.6523
   1422.34985     725.4377     533.2802   1422.34985     725.4377     533.2802
   1422.33459     726.1752     531.8839   1422.33459     726.1752     531.8839
   1422.31934     726.9155     531.0627   1422.31934     726.9155     531.0627
   1422.30408     726.4930     531.0352   1422.30408     726.4930     531.0352
   1422.28882     727.4995     530.6006   1422.28882     727.4995     530.6006
   1422.27356     726.4229     529.1945   1422.27356     726.4229     529.1945
   1422.25830     725.2614     528.7373   1422.25830     725.2614     528.7373
   1422.24304     726.3602     527.9599   1422.24304     726.3602     527.9599
   1422.22778     726.1143     526.4075   1422.22778     726.1143     526.4075
   1422.21252     726.8561     525.6193   1422.21252     726.8561     525.6193
   1422.19727     724.8275     524.4456   1422.19727     724.8275     524.4456
   1422.18201     724.4112     524.2995   1422.18201     724.4112     524.2995
   1422.16675     724.6585     523.0164   1422.16675     724.6585     523.0164
   1422.15149     724.3141     522.0727   1422.15149     724.3141     522.0727
   1422.13623     723.8965     521.7761   1422.13623     723.8965     521.7761
   1422.12097     724.1995     520.6219   1422.12097     724.1995     520.6219
   1422.10571     723.9730     520.2496   1422.10571     723.9730     520.2496
   1422.09045     724.4826     519.1925   1422.09045     724.4826     519.1925
   1422.07520     725.8331     518.8958   1422.07520     725.8331     518.8958
   1422.05994     724.3064     518.4274   1422.05994     724.3064     518.4274
   1422.04468     725.7427     516.7877   1422.04468     725.7427     516.7877
   1422.02942     724.4819     516.0056   1422.02942     724.4819     516.0056
   1422.01416     724.8010     515.2797   1422.01416     724.8010     515.2797
   1421.99890     724.4384     515.0264   1421.99890     724.4384     515.0264
   1421.98364     722.3803     513.0528   1421.98364     722.3803     513.0528
   1421.96838     723.8058     512.0975   1421.96838     723.8058     512.0975
   1421.95312     724.4589     512.5707   1421.95312     724.4589     512.5707
   1421.93787     724.0542     511.6812   1421.93787     724.0542     511.6812
   1421.92261     723.3359     510.4945   1421.92261     723.3359     510.4945
   1421.90735     722.3597     509.4387   1421.90735     722.3597     509.4387
   1421.89209     722.5255     508.2004   1421.89209     722.5255     508.2004
   1421.87683     722.4974     507.8039   1421.87683     722.4974     507.8039
   1421.86157     723.7913     506.7873   1421.86157     723.7913     506.7873
   1421.84631     722.9933     506.5366   1421.84631     722.9933     506.5366
   1421.83105     722.9789     504.7349   1421.83105     722.9789     504.7349
   1421.81580     721.8550     504.5279   1421.81580     721.8550     504.5279
   1421.80054     721.2949     503.8234   1421.80054     721.2949     503.8234
   1421.78528     721.5525     502.8217   1421.78528     721.5525     502.8217
   1421.77002     721.3509     501.8575   1421.77002     721.3509     501.8575
   1421.75476     721.6978     500.8262   1421.75476     721.6978     500.8262
   1421.73950     720.8204     500.0001   1421.73950     720.8204     500.0001
   1421.72424     721.3006     499.9411   1421.72424     721.3006     499.9411
   1421.70898     721.8477     498.5470   1421.70898     721.8477     498.5470
   1421.69373     720.9774     497.5446   1421.69373     720.9774     497.5446
   1421.67847     721.8853     497.1934   1421.67847     721.8853     497.1934
   1421.66321     721.5848     495.9150   1421.66321     721.5848     495.9150
   1421.64795     720.2421     495.8955   1421.64795     720.2421     495.8955
   1421.63269     719.9747     493.9748   1421.63269     719.9747     493.9748
   1421.61743     720.3828     493.4581   1421.61743     720.3828     493.4581
   1421.60217     720.2270     491.8407   1421.60217     720.2270     491.8407
   1421.58691     720.1448     491.9520   1421.58691     720.1448     491.9520
   1421.57166     720.7857     490.8958   1421.57166     720.7857     490.8958
   1421.55640     720.1749     489.9302   1421.55640     720.1749     489.9302
   1421.54114     720.4753     489.2534   1421.54114     720.4753     489.2534
   1421.52588     719.9415     487.9027   1421.52588     719.9415     487.9027
   1421.51062     720.1234     488.0891   1421.51062     720.1234     488.0891
   1421.49536     719.2997     486.3233   1421.49536     719.2997     486.3233
   1421.48010     718.9476     485.5956   1421.48010     718.9476     485.5956
   1421.46484     718.8519     484.9428   1421.46484     718.8519     484.9428
   1421.44958     719.0294     483.5229   1421.44958     719.0294     483.5229
   1421.43433     717.7741     484.2939   1421.43433     717.7741     484.2939
   1421.41907     719.3104     482.0545   1421.41907     719.3104     482.0545
   1421.40381     718.5538     481.5208   1421.40381     718.5538     481.5208
   1421.38855     717.8538     480.8023   1421.38855     717.8538     480.8023
   1421.37329     717.9274     480.4664   1421.37329     717.9274     480.4664
   1421.35803     717.6353     478.9114   1421.35803     717.6353     478.9114
   1421.34277     717.9842     478.8302   1421.34277     717.9842     478.8302
   1421.32751     717.6200     477.3183   1421.32751     717.6200     477.3183
   1421.31226     716.5789     476.2735   1421.31226     716.5789     476.2735
   1421.29700     718.1186     475.6445   1421.29700     718.1186     475.6445
   1421.28174     717.6414     475.2640   1421.28174     717.6414     475.2640
   1421.26648     715.9157     473.4635   1421.26648     715.9157     473.4635
   1421.25122     716.0680     473.1328   1421.25122     716.0680     473.1328
   1421.23596     715.9034     472.4593   1421.23596     715.9034     472.4593
   1421.22070     717.0967     471.3295   1421.22070     717.0967     471.3295
   1421.20544     716.1373     471.2562   1421.20544     716.1373     471.2562
   1421.19019     714.7537     469.9854   1421.19019     714.7537     469.9854
   1421.17493     716.2302     469.4532   1421.17493     716.2302     469.4532
   1421.15967     714.7466     468.2332   1421.15967     714.7466     468.2332
   1421.14441     714.2150     467.0035   1421.14441     714.2150     467.0035
   1421.12915     715.5551     467.1451   1421.12915     715.5551     467.1451
   1421.11389     713.9284     465.9517   1421.11389     713.9284     465.9517
   1421.09863     714.6505     464.4586   1421.09863     714.6505     464.4586
   1421.08337     713.8443     464.5313   1421.08337     713.8443     464.5313
   1421.06812     714.1679     463.5691   1421.06812     714.1679     463.5691
   1421.05286     712.9623     462.3770   1421.05286     712.9623     462.3770
   1421.03760     713.2137     461.5047   1421.03760     713.2137     461.5047
   1421.02234     713.6381     460.7082   1421.02234     713.6381     460.7082
   1421.00708     712.3875     460.5337   1421.00708     712.3875     460.5337
   1420.99182     713.8050     458.5582   1420.99182     713.8050     458.5582
   1420.97656     713.0088     459.6607   1420.97656     713.0088     459.6607
   1420.96130     711.4472     457.8048   1420.96130     711.4472     457.8048
   1420.94604     711.2374     457.8491   1420.94604     711.2374     457.8491
   1420.93079     712.6015     456.6055   1420.93079     712.6015     456.6055
   1420.91553     712.3067     455.1909   1420.91553     712.3067     455.1909
   1420.90027     712.9492     454.3333   1420.90027     712.9492     454.3333
   1420.88501     711.4772     453.8259   1420.88501     711.4772     453.8259
   1420.86975     712.2375     452.8795   1420.86975     712.2375     452.8795
   1420.85449     711.3617     452.5468   1420.85449     711.3617     452.5468
   1420.83923     711.6235     450.6724   1420.83923     711.6235     450.6724
   1420.82397     711.6440     450.6289   1420.82397     711.6440     450.6289
   1420.80872     711.7231     449.9432   1420.80872     711.7231     449.9432
   1420.79346     712.0377     449.7962   1420.79346     712.0377     449.7962
   1420.77820     712.7839     448.8517   1420.77820     712.7839     448.8517
   1420.76294     712.3271     447.7496   1420.76294     712.3271     447.7496
   1420.74768     712.5289     447.8124   1420.74768     712.5289     447.8124
   1420.73242     712.3196     447.7121   1420.73242     712.3196     447.7121
   1420.71716     713.6712     447.3108   1420.71716     713.6712     447.3108
   1420.70190     713.9736     446.3517   1420.70190     713.9736     446.3517
   1420.68665     712.9936     445.6166   1420.68665     712.9936     445.6166
   1420.67139     715.5244     446.2328   1420.67139     715.5244     446.2328
   1420.65613     715.6417     444.9386   1420.65613     715.6417     444.9386
   1420.64087     716.7955     445.5921   1420.64087     716.7955     445.5921
   1420.62561     717.5706     444.7663   1420.62561     717.5706     444.7663
   1420.61035     718.6393     444.6223   1420.61035     718.6393     444.6223
   1420.59509     719.3844     445.4461   1420.59509     719.3844     445.4461
   1420.57983     722.3385     445.3968   1420.57983     722.3385     445.3968
   1420.56458     726.9597     448.9269   1420.56458     726.9597     448.9269
   1420.54932     735.0839     451.8637   1420.54932     735.0839     451.8637
   1420.53406     745.6790     458.5052   1420.53406     745.6790     458.5052
   1420.51880     754.5826     461.7883   1420.51880     754.5826     461.7883
   1420.50354     761.8334     467.0821   1420.50354     761.8334     467.0821
   1420.48828     775.2621     472.7238   1420.48828     775.2621     472.7238
   1420.47302     794.8353     484.0194   1420.47302     794.8353     484.0194
   1420.45776     828.8817     504.3198   1420.45776     828.8817     504.3198
   1420.44250     886.2216     536.0029   1420.44250     886.2216     536.0029
   1420.42725    1024.2595     617.1796   1420.42725    1024.2595     617.1796
   1420.41199    1343.9052     803.2595   1420.41199    1343.9052     803.2595
   1420.39673    1800.7599    1067.8844   1420.39673    1800.7599    1067.8844
   1420.38147    2070.7100    1227.1843   1420.38147    2070.7100    1227.1843
   1420.36621    2138.9331    1267.7061   1420.36621    2138.9331    1267.7061
   1420.35095    2217.2988    1310.8340   1420.35095    2217.2988    1310.8340
   1420.33569    2472.4180    1460.8466   1420.33569    2472.4180    1460.8466
   1420.32043    2578.0425    1522.9816   1420.32043    2578.0425    1522.9816
   1420.30518    2470.3967    1452.3457   1420.30518    2470.3967    1452.3457
   1420.28992    2194.1584    1290.0510   1420.28992    2194.1584    1290.0510
   1420.27466    1792.6672    1055.6385   1420.27466    1792.6672    1055.6385
   1420.25940    1157.7892     687.1843   1420.25940    1157.7892     687.1843
   1420.24414     885.7789     528.3640   1420.24414     885.7789     528.3640
   1420.22888     794.6903     474.0831   1420.22888     794.6903     474.0831
   1420.21362     752.5944     449.1438   1420.21362     752.5944     449.1438
   1420.19836     732.9932     436.3652   1420.19836     732.9932     436.3652
   1420.18311     722.0501     429.3589   1420.18311     722.0501     429.3589
   1420.16785     717.4150     426.1093   1420.16785     717.4150     426.1093
   1420.15259     712.1002     422.6504   1420.15259     712.1002     422.6504
   1420.13733     709.9271     421.0766   1420.13733     709.9271     421.0766
   1420.12207     706.8423     418.5577   1420.12207     706.8423     418.5577
   1420.10681     706.3188     417.6584   1420.10681     706.3188     417.6584
   1420.09155     702.7325     415.9364   1420.09155     702.7325     415.9364
   1420.07629     702.2537     415.0277   1420.07629     702.2537     415.0277
   1420.06104     701.4191     413.2500   1420.06104     701.4191     413.2500
   1420.04578     700.8886     412.6063   1420.04578     700.8886     412.6063
   1420.03052     699.9581     411.7418   1420.03052     699.9581     411.7418
   1420.01526     700.7125     412.3299   1420.01526     700.7125     412.3299
   1420.00000     701.5374     412.6161   1420.00000     701.5374     412.6161
   1419.98474     702.3621     412.9022   1419.98474     702.3621     412.9022
   1419.96948     701.5566     409.9679   1419.96948     701.5566     409.9679
   1419.95422     699.0138     407.9524   1419.95422     699.0138     407.9524
   1419.93896     698.9023     407.7315   1419.93896     698.9023     407.7315
   1419.92371     698.6328     407.6996   1419.92371     698.6328     407.6996
   1419.90845     698.1130     406.8655   1419.90845     698.1130     406.8655
   1419.89319     698.1916     405.7637   1419.89319     698.1916     405.7637
   1419.87793     698.1661     405.1146   1419.87793     698.1661     405.1146
   1419.86267     698.3214     404.7436   1419.86267     698.3214     404.7436
   1419.84741     697.3727     404.4619   1419.84741     697.3727     404.4619
   1419.83215     696.1634     403.3048   1419.83215     696.1634     403.3048
   1419.81689     696.5979     402.8926   1419.81689     696.5979     402.8926
   1419.80164     696.8345     403.0123   1419.80164     696.8345     403.0123
   1419.78638     696.3442     402.5225   1419.78638     696.3442     402.5225
   1419.77112     696.9857     401.4240   1419.77112     696.9857     401.4240
   1419.75586     697.2435     401.5719   1419.75586     697.2435     401.5719
   1419.74060     696.0984     400.1898   1419.74060     696.0984     400.1898
   1419.72534     696.8288     400.3343   1419.72534     696.8288     400.3343
   1419.71008     697.3319     399.8233   1419.71008     697.3319     399.8233
   1419.69482     696.7400     399.6529   1419.69482     696.7400     399.6529
   1419.67957     697.3972     398.4749   1419.67957     697.3972     398.4749
   1419.66431     696.9702     398.6086   1419.66431     696.9702     398.6086
   1419.64905     697.2491     398.9892   1419.64905     697.2491     398.9892
   1419.63379     697.3595     397.5490   1419.63379     697.3595     397.5490
   1419.61853     696.8752     397.3222   1419.61853     696.8752     397.3222
   1419.60327     697.4548     397.0820   1419.60327     697.4548     397.0820
   1419.58801     697.4227     396.9886   1419.58801     697.4227     396.9886
   1419.57275     697.6356     396.4840   1419.57275     697.6356     396.4840
   1419.55750     698.2151     395.6598   1419.55750     698.2151     395.6598
   1419.54224     697.4649     395.3434   1419.54224     697.4649     395.3434
   1419.52698     699.2391     395.6014   1419.52698     699.2391     395.6014
   1419.51172     698.6525     395.6285   1419.51172     698.6525     395.6285
   1419.49646     698.0920     394.6751   1419.49646     698.0920     394.6751
   1419.48120     699.0914     394.5856   1419.48120     699.0914     394.5856
   1419.46594     698.3575     393.7698   1419.46594     698.3575     393.7698
   1419.45068     699.2278     394.1774   1419.45068     699.2278     394.1774
   1419.43542     699.3845     393.2644   1419.43542     699.3845     393.2644
   1419.42017     699.3701     393.5679   1419.42017     699.3701     393.5679
   1419.40491     698.6915     393.1749   1419.40491     698.6915     393.1749
   1419.38965     699.2972     393.6232   1419.38965     699.2972     393.6232
   1419.37439     700.1614     392.5013   1419.37439     700.1614     392.5013
   1419.35913     699.5685     392.4185   1419.35913     699.5685     392.4185
   1419.34387     700.4210     392.3216   1419.34387     700.4210     392.3216
   1419.32861     699.9151     391.6443   1419.32861     699.9151     391.6443
   1419.31335     700.5351     392.2916   1419.31335     700.5351     392.2916
   1419.29810     701.7736     391.3994   1419.29810     701.7736     391.3994
   1419.28284     701.7064     390.9600   1419.28284     701.7064     390.9600
   1419.26758     702.9008     391.3967   1419.26758     702.9008     391.3967
   1419.25232     702.3300     390.9215   1419.25232     702.3300     390.9215
   1419.23706     703.5144     391.0042   1419.23706     703.5144     391.0042
   1419.22180     703.4365     391.5222   1419.22180     703.4365     391.5222
   1419.20654     702.7096     391.3893   1419.20654     702.7096     391.3893
   1419.19128     703.2626     390.4849   1419.19128     703.2626     390.4849
   1419.17603     703.5967     390.4707   1419.17603     703.5967     390.4707
   1419.16077     703.4764     390.1726   1419.16077     703.4764     390.1726
   1419.14551     704.2394     390.4706   1419.14551     704.2394     390.4706
   1419.13025     703.5475     389.9140   1419.13025     703.5475     389.9140
   1419.11499     705.6963     390.5577   1419.11499     705.6963     390.5577
   1419.09973     705.3429     389.7614   1419.09973     705.3429     389.7614
   1419.08447     704.5750     390.5983   1419.08447     704.5750     390.5983
   1419.06921     705.7253     389.9487   1419.06921     705.7253     389.9487
   1419.05396     706.4631     390.6256   1419.05396     706.4631     390.6256
   1419.03870     706.7815     390.0721   1419.03870     706.7815     390.0721
   1419.02344     707.7807     390.1177   1419.02344     707.7807     390.1177
   1419.00818     706.6622     390.2878   1419.00818     706.6622     390.2878
   1418.99292     707.8522     390.2974   1418.99292     707.8522     390.2974
   1418.97766     708.8398     390.0559   1418.97766     708.8398     390.0559
   1418.96240     708.4678     390.6355   1418.96240     708.4678     390.6355
   1418.94714     708.7561     390.4927   1418.94714     708.7561     390.4927
   1418.93188     708.9924     390.5846   1418.93188     708.9924     390.5846
   1418.91663     708.9254     391.0102   1418.91663     708.9254     391.0102
   1418.90137     710.5197     390.5418   1418.90137     710.5197     390.5418
   1418.88611     710.8293     390.6034   1418.88611     710.8293     390.6034
   1418.87085     711.4128     390.8263   1418.87085     711.4128     390.8263
   1418.85559     710.0305     391.2687   1418.85559     710.0305     391.2687
   1418.84033     712.5306     390.7293   1418.84033     712.5306     390.7293
   1418.82507     712.0283     391.4897   1418.82507     712.0283     391.4897
   1418.80981     712.8098     391.6451   1418.80981     712.8098     391.6451
   1418.79456     714.2657     391.8730   1418.79456     714.2657     391.8730
   1418.77930     714.0603     391.9982   1418.77930     714.0603     391.9982
   1418.76404     715.4499     392.0745   1418.76404     715.4499     392.0745
   1418.74878     714.1163     391.8665   1418.74878     714.1163     391.8665
   1418.73352     715.3279     392.0098   1418.73352     715.3279     392.0098
   1418.71826     716.2184     392.7947   1418.71826     716.2184     392.7947
   1418.70300     716.1380     392.6307   1418.70300     716.1380     392.6307
   1418.68774     717.5506     392.8161   1418.68774     717.5506     392.8161
   1418.67249     718.6451     393.3597   1418.67249     718.6451     393.3597
   1418.65723     717.9225     393.8497   1418.65723     717.9225     393.8497
   1418.64197     718.6874     393.6665   1418.64197     718.6874     393.6665
   1418.62671     719.9204     393.8505   1418.62671     719.9204     393.8505
   1418.61145     720.8294     394.6261   1418.61145     720.8294     394.6261
   1418.59619     721.2567     395.2162   1418.59619     721.2567     395.2162
   1418.58093     721.8398     395.1924   1418.58093     721.8398     395.1924
   1418.56567     721.3528     395.7799   1418.56567     721.3528     395.7799
   1418.55042     723.3342     395.8705   1418.55042     723.3342     395.8705
   1418.53516     722.3981     396.3472   1418.53516     722.3981     396.3472
   1418.51990     722.3462     395.7192   1418.51990     722.3462     395.7192
   1418.50464     725.2051     396.6017   1418.50464     725.2051     396.6017
   1418.48938     724.9960     397.3238   1418.48938     724.9960     397.3238
   1418.47412     725.9649     397.4832   1418.47412     725.9649     397.4832
   1418.45886     724.5007     397.9489   1418.45886     724.5007     397.9489
   1418.44360     726.9068     398.3793   1418.44360     726.9068     398.3793
   1418.42834     727.7426     398.4570   1418.42834     727.7426     398.4570
   1418.41309     728.9305     399.9052   1418.41309     728.9305     399.9052
   1418.39783     728.1156     399.7883   1418.39783     728.1156     399.7883
   1418.38257     729.0043     399.9467   1418.38257     729.0043     399.9467
   1418.36731     729.5638     400.2030   1418.36731     729.5638     400.2030
   1418.35205     730.8224     400.3486   1418.35205     730.8224     400.3486
   1418.33679     731.0988     401.4315   1418.33679     731.0988     401.4315
   1418.32153     731.9282     401.5519   1418.32153     731.9282     401.5519
   1418.30627     731.8027     402.2507   1418.30627     731.8027     402.2507
   1418.29102     733.3439     402.7710   1418.29102     733.3439     402.7710
   1418.27576     734.4710     403.7991   1418.27576     734.4710     403.7991
   1418.26050     734.6421     404.7031   1418.26050     734.6421     404.7031
   1418.24524     736.0068     404.8023   1418.24524     736.0068     404.8023
   1418.22998     735.0720     405.2212   1418.22998     735.0720     405.2212
   1418.21472     736.7800     405.6836   1418.21472     736.7800     405.6836
   1418.19946     737.9124     406.5572   1418.19946     737.9124     406.5572
   1418.18420     738.6907     406.6273   1418.18420     738.6907     406.6273
   1418.16895     738.6844     407.5030   1418.16895     738.6844     407.5030
   1418.15369     740.2634     407.6631   1418.15369     740.2634     407.6631
   1418.13843     741.4802     408.6317   1418.13843     741.4802     408.6317
   1418.12317     741.6179     409.7398   1418.12317     741.6179     409.7398
   1418.10791     742.2428     409.4075   1418.10791     742.2428     409.4075
   1418.09265     742.5579     411.0020   1418.09265     742.5579     411.0020
   1418.07739     743.7792     410.6443   1418.07739     743.7792     410.6443
   1418.06213     744.0907     412.0189   1418.06213     744.0907     412.0189
   1418.04688     744.9044     411.9890   1418.04688     744.9044     411.9890
   1418.03162     745.1192     413.0911   1418.03162     745.1192     413.0911
   1418.01636     746.7036     413.4951   1418.01636     746.7036     413.4951
   1418.00110     747.4949     414.3391   1418.00110     747.4949     414.3391
   1417.98584     747.4295     414.4153   1417.98584     747.4295     414.4153
   1417.97058     748.7003     416.1798   1417.97058     748.7003     416.1798
   1417.95532     749.9391     416.1298   1417.95532     749.9391     416.1298
   1417.94006     750.5888     416.7496   1417.94006     750.5888     416.7496
   1417.92480     750.7251     418.0959   1417.92480     750.7251     418.0959
   1417.90955     751.4533     418.8382   1417.90955     751.4533     418.8382
   1417.89429     751.7412     419.6386   1417.89429     751.7412     419.6386
   1417.87903     753.4161     420.9729   1417.87903     753.4161     420.9729
   1417.86377     754.6202     420.1706   1417.86377     754.6202     420.1706
   1417.84851     754.8643     421.7226   1417.84851     754.8643     421.7226
   1417.83325     755.5794     422.0788   1417.83325     755.5794     422.0788
   1417.81799     756.6257     423.7220   1417.81799     756.6257     423.7220
   1417.80273     758.2869     424.2960   1417.80273     758.2869     424.2960
   1417.78748     756.8419     425.2483   1417.78748     756.8419     425.2483
   1417.77222     760.0088     425.8532   1417.77222     760.0088     425.8532
   1417.75696     759.6514     426.6847   1417.75696     759.6514     426.6847
   1417.74170     759.7172     427.3251   1417.74170     759.7172     427.3251
   1417.72644     761.6390     428.5766   1417.72644     761.6390     428.5766
   1417.71118     762.3913     429.8491   1417.71118     762.3913     429.8491
   1417.69592     762.9753     430.1411   1417.69592     762.9753     430.1411
   1417.68066     763.7844     430.8050   1417.68066     763.7844     430.8050
   1417.66541     764.6289     432.2696   1417.66541     764.6289     432.2696
   1417.65015     766.3209     433.0084   1417.65015     766.3209     433.0084
   1417.63489     766.8037     434.1697   1417.63489     766.8037     434.1697
   1417.61963     766.9577     435.1063   1417.61963     766.9577     435.1063
   1417.60437     767.9852     435.6110   1417.60437     767.9852     435.6110
   1417.58911     769.4907     436.1984   1417.58911     769.4907     436.1984
   1417.57385     769.9637     437.9381   1417.57385     769.9637     437.9381
   1417.55859     770.9700     438.6625   1417.55859     770.9700     438.6625
   1417.54333     770.5414     438.9590   1417.54333     770.5414     438.9590
   1417.52808     770.8927     440.8832   1417.52808     770.8927     440.8832
   1417.51282     772.7697     441.4238   1417.51282     772.7697     441.4238
   1417.49756     773.9066     442.5269   1417.49756     773.9066     442.5269
   1417.48230     773.7514     443.9323   1417.48230     773.7514     443.9323
   1417.46704     774.8154     443.9510   1417.46704     774.8154     443.9510
   1417.45178     775.7101     444.9455   1417.45178     775.7101     444.9455
   1417.43652     777.0335     446.2218   1417.43652     777.0335     446.2218
   1417.42126     777.2485     447.0558   1417.42126     777.2485     447.0558
   1417.40601     777.3571     448.1280   1417.40601     777.3571     448.1280
   1417.39075     778.2548     449.5034   1417.39075     778.2548     449.5034
   1417.37549     778.6859     449.9871   1417.37549     778.6859     449.9871
   1417.36023     780.1811     451.2676   1417.36023     780.1811     451.2676
   1417.34497     780.5948     452.1895   1417.34497     780.5948     452.1895
   1417.32971     781.0507     452.9066   1417.32971     781.0507     452.9066
   1417.31445     781.6014     453.6175   1417.31445     781.6014     453.6175
   1417.29919     782.7020     455.0276   1417.29919     782.7020     455.0276
   1417.28394     782.1090     455.6929   1417.28394     782.1090     455.6929
   1417.26868     783.8674     456.2687   1417.26868     783.8674     456.2687
   1417.25342     784.4476     458.1537   1417.25342     784.4476     458.1537
   1417.23816     784.1361     459.0539   1417.23816     784.1361     459.0539
   1417.22290     787.0328     459.9327   1417.22290     787.0328     459.9327
   1417.20764     786.5419     461.0063   1417.20764     786.5419     461.0063
   1417.19238     787.4850     462.9711   1417.19238     787.4850     462.9711
   1417.17712     787.3146     462.5101   1417.17712     787.3146     462.5101
   1417.16187     788.8118     464.2283   1417.16187     788.8118     464.2283
   1417.14661     789.3955     465.1583   1417.14661     789.3955     465.1583
   1417.13135     788.9883     466.1472   1417.13135     788.9883     466.1472
   1417.11609     790.6645     467.4927   1417.11609     790.6645     467.4927
   1417.10083     791.0011     467.7344   1417.10083     791.0011     467.7344
   1417.08557     791.0608     469.4646   1417.08557     791.0608     469.4646
   1417.07031     792.0264     470.2524   1417.07031     792.0264     470.2524
   1417.05505     793.9810     471.2770   1417.05505     793.9810     471.2770
   1417.03979     792.9489     471.8161   1417.03979     792.9489     471.8161
   1417.02454     793.4526     473.3325   1417.02454     793.4526     473.3325
   1417.00928     794.4330     474.6727   1417.00928     794.4330     474.6727
   1416.99402     795.1229     475.2923   1416.99402     795.1229     475.2923
   1416.97876     795.3502     475.1531   1416.97876     795.3502     475.1531
   1416.96350     795.7621     476.9992   1416.96350     795.7621     476.9992
   1416.94824     795.5571     477.3490   1416.94824     795.5571     477.3490
   1416.93298     797.4852     478.6141   1416.93298     797.4852     478.6141
   1416.91772     797.6032     479.7570   1416.91772     797.6032     479.7570
   1416.90247     796.3253     480.6126   1416.90247     796.3253     480.6126
   1416.88721     798.1353     481.5958   1416.88721     798.1353     481.5958
   1416.87195     798.6766     482.4386   1416.87195     798.6766     482.4386
   1416.85669     799.2188     483.3397   1416.85669     799.2188     483.3397
   1416.84143     798.9216     484.1370   1416.84143     798.9216     484.1370
   1416.82617     799.2531     485.9502   1416.82617     799.2531     485.9502
   1416.81091     799.6177     485.9039   1416.81091     799.6177     485.9039
   1416.79565     799.9886     486.4828   1416.79565     799.9886     486.4828
   1416.78040     799.9868     486.6757   1416.78040     799.9868     486.6757
   1416.76514     800.6503     489.2889   1416.76514     800.6503     489.2889
   1416.74988     800.9601     488.9719   1416.74988     800.9601     488.9719
   1416.73462     800.2165     490.4046   1416.73462     800.2165     490.4046
   1416.71936     801.9887     491.0300   1416.71936     801.9887     491.0300
   1416.70410     800.8179     490.9006   1416.70410     800.8179     490.9006
   1416.68884     801.4042     492.4655   1416.68884     801.4042     492.4655
   1416.67358     802.5608     493.2804   1416.67358     802.5608     493.2804
   1416.65833     802.2645     493.5348   1416.65833     802.2645     493.5348
   1416.64307     803.6859     494.6406   1416.64307     803.6859     494.6406
   1416.62781     802.6326     495.2948   1416.62781     802.6326     495.2948
   1416.61255     802.3627     495.9565   1416.61255     802.3627     495.9565
   1416.59729     804.5000     497.1568   1416.59729     804.5000     497.1568
   1416.58203     803.0588     498.0891   1416.58203     803.0588     498.0891
   1416.56677     803.9266     498.5842   1416.56677     803.9266     498.5842
   1416.55151     802.7193     498.4094   1416.55151     802.7193     498.4094
   1416.53625     801.9565     499.0864   1416.53625     801.9565     499.0864
   1416.52100     803.5678     500.1929   1416.52100     803.5678     500.1929
   1416.50574     802.9575     500.9240   1416.50574     802.9575     500.9240
   1416.49048     803.7358     501.6781   1416.49048     803.7358     501.6781
   1416.47522     804.2677     502.3004   1416.47522     804.2677     502.3004
   1416.45996     803.2310     502.7655   1416.45996     803.2310     502.7655
   1416.44470     803.5937     503.2067   1416.44470     803.5937     503.2067
   1416.42944     804.1242     503.5661   1416.42944     804.1242     503.5661
   1416.41418     803.4158     504.2386   1416.41418     803.4158     504.2386
   1416.39893     802.2555     504.2850   1416.39893     802.2555     504.2850
   1416.38367     803.0932     504.3068   1416.38367     803.0932     504.3068
   1416.36841     803.4124     505.0086   1416.36841     803.4124     505.0086
   1416.35315     802.3702     505.9426   1416.35315     802.3702     505.9426
   1416.33789     803.4252     506.8874   1416.33789     803.4252     506.8874
   1416.32263     803.4943     506.6624   1416.32263     803.4943     506.6624
   1416.30737     802.3972     506.5658   1416.30737     802.3972     506.5658
   1416.29211     802.2202     507.6781   1416.29211     802.2202     507.6781
   1416.27686     801.5492     508.1555   1416.27686     801.5492     508.1555
   1416.26160     802.8431     507.6208   1416.26160     802.8431     507.6208
   1416.24634     803.0424     508.2983   1416.24634     803.0424     508.2983
   1416.23108     802.4258     508.9935   1416.23108     802.4258     508.9935
   1416.21582     801.4356     509.6435   1416.21582     801.4356     509.6435
   1416.20056     800.7126     510.3356   1416.20056     800.7126     510.3356
   1416.18530     800.3348     510.5886   1416.18530     800.3348     510.5886
   1416.17004     798.4221     510.4669   1416.17004     798.4221     510.4669
   1416.15479     798.6264     510.3111   1416.15479     798.6264     510.3111
   1416.13953     798.7303     510.4749   1416.13953     798.7303     510.4749
   1416.12427     800.1239     510.7065   1416.12427     800.1239     510.7065
   1416.10901     798.3812     511.0287   1416.10901     798.3812     511.0287
   1416.09375     797.5624     511.7393   1416.09375     797.5624     511.7393
   1416.07849     798.8935     510.7824   1416.07849     798.8935     510.7824
   1416.06323     795.5618     510.8856   1416.06323     795.5618     510.8856
   1416.04797     796.4930     511.2334   1416.04797     796.4930     511.2334
   1416.03271     796.7874     512.0460   1416.03271     796.7874     512.0460
   1416.01746     795.0022     511.8578   1416.01746     795.0022     511.8578
   1416.00220     794.5658     512.3318   1416.00220     794.5658     512.3318
   1415.98694     794.7290     512.1954   1415.98694     794.7290     512.1954
   1415.97168     793.6367     512.4388   1415.97168     793.6367     512.4388
   1415.95642     794.1768     512.7545   1415.95642     794.1768     512.7545
   1415.94116     793.3374     512.5970   1415.94116     793.3374     512.5970
   1415.92590     792.5538     512.9108   1415.92590     792.5538     512.9108
   1415.91064     793.0566     512.5242   1415.91064     793.0566     512.5242
   1415.89539     792.4417     512.0785   1415.89539     792.4417     512.0785
   1415.88013     791.2094     512.3279   1415.88013     791.2094     512.3279
   1415.86487     791.6472     512.9292   1415.86487     791.6472     512.9292
   1415.84961     789.1478     512.2256   1415.84961     789.1478     512.2256
   1415.83435     789.6010     512.5605   1415.83435     789.6010     512.5605
   1415.81909     790.0759     512.8249   1415.81909     790.0759     512.8249
   1415.80383     788.9938     512.9277   1415.80383     788.9938     512.9277
   1415.78857     787.3668     512.4858   1415.78857     787.3668     512.4858
   1415.77332     787.8908     513.0362   1415.77332     787.8908     513.0362
   1415.75806     785.8265     512.4728   1415.75806     785.8265     512.4728
   1415.74280     785.0812     511.9913   1415.74280     785.0812     511.9913
   1415.72754     785.0514     511.7042   1415.72754     785.0514     511.7042
   1415.71228     785.5245     512.3505   1415.71228     785.5245     512.3505
   1415.69702     783.6647     511.7629   1415.69702     783.6647     511.7629
   1415.68176     782.5463     512.5490   1415.68176     782.5463     512.5490
   1415.66650     782.6628     511.5462   1415.66650     782.6628     511.5462
   1415.65125     780.6523     511.4417   1415.65125     780.6523     511.4417
   1415.63599     780.5971     511.4378   1415.63599     780.5971     511.4378
   1415.62073     777.8067     510.9532   1415.62073     777.8067     510.9532
   1415.60547     778.7288     510.3112   1415.60547     778.7288     510.3112
   1415.59021     778.6611     511.9915   1415.59021     778.6611     511.9915
   1415.57495     777.2943     511.1264   1415.57495     777.2943     511.1264
   1415.55969     777.4038     511.0100   1415.55969     777.4038     511.0100
   1415.54443     775.9350     511.3139   1415.54443     775.9350     511.3139
   1415.52917     774.0189     510.5587   1415.52917     774.0189     510.5587
   1415.51392     773.1482     510.3505   1415.51392     773.1482     510.3505
   1415.49866     772.8631     510.5725   1415.49866     772.8631     510.5725
   1415.48340     772.0493     510.3524   1415.48340     772.0493     510.3524
   1415.46814     769.7913     510.0256   1415.46814     769.7913     510.0256
   1415.45288     770.7225     510.0693   1415.45288     770.7225     510.0693
   1415.43762     769.4295     510.0660   1415.43762     769.4295     510.0660
   1415.42236     768.2467     509.7676   1415.42236     768.2467     509.7676
   1415.40710     766.4515     509.4600   1415.40710     766.4515     509.4600
   1415.39185     766.6481     508.8056   1415.39185     766.6481     508.8056
   1415.37659     765.9442     508.6082   1415.37659     765.9442     508.6082
   1415.36133     763.7885     508.4663   1415.36133     763.7885     508.4663
   1415.34607     763.0370     507.7257   1415.34607     763.0370     507.7257
   1415.33081     760.7722     506.7126   1415.33081     760.7722     506.7126
   1415.31555     760.8541     507.0902   1415.31555     760.8541     507.0902
   1415.30029     759.3824     508.1130   1415.30029     759.3824     508.1130
   1415.28503     758.0394     506.7704   1415.28503     758.0394     506.7704
   1415.26978     757.2597     505.9547   1415.26978     757.2597     505.9547
   1415.25452     755.7480     505.8469   1415.25452     755.7480     505.8469
   1415.23926     754.9571     505.3177   1415.23926     754.9571     505.3177
   1415.22400     754.3229     505.2859   1415.22400     754.3229     505.2859
   1415.20874     751.1216     504.8003   1415.20874     751.1216     504.8003
   1415.19348     752.1010     503.9434   1415.19348     752.1010     503.9434
   1415.17822     750.2476     503.8316   1415.17822     750.2476     503.8316
   1415.16296     748.8160     503.6148   1415.16296     748.8160     503.6148
   1415.14771     748.0309     503.8290   1415.14771     748.0309     503.8290
   1415.13245     745.3254     502.4822   1415.13245     745.3254     502.4822
   1415.11719     745.8730     502.0511   1415.11719     745.8730     502.0511
   1415.10193     743.9742     501.5430   1415.10193     743.9742     501.5430
   1415.08667     742.9930     501.3107   1415.08667     742.9930     501.3107
   1415.07141     741.9236     501.2192   1415.07141     741.9236     501.2192
   1415.05615     740.1475     500.5937   1415.05615     740.1475     500.5937
   1415.04089     739.3598     499.9675   1415.04089     739.3598     499.9675
   1415.02563     737.8175     498.7971   1415.02563     737.8175     498.7971
   1415.01038     736.6133     498.9806   1415.01038     736.6133     498.9806
   1414.99512     733.3494     498.8467   1414.99512     733.3494     498.8467
   1414.97986     732.4731     497.1878   1414.97986     732.4731     497.1878
   1414.96460     731.0118     497.4089   1414.96460     731.0118     497.4089
   1414.94934     729.6810     495.6928   1414.94934     729.6810     495.6928
   1414.93408     728.0553     495.6889   1414.93408     728.0553     495.6889
   1414.91882     727.0245     495.0267   1414.91882     727.0245     495.0267
   1414.90356     725.7335     494.6883   1414.90356     725.7335     494.6883
   1414.88831     723.4229     493.5081   1414.88831     723.4229     493.5081
   1414.87305     722.0176     493.7500   1414.87305     722.0176     493.7500
   1414.85779     719.0191     492.1417   1414.85779     719.0191     492.1417
   1414.84253     719.3024     491.5148   1414.84253     719.3024     491.5148
   1414.82727     716.6653     490.7913   1414.82727     716.6653     490.7913
   1414.81201     715.3965     489.7134   1414.81201     715.3965     489.7134
   1414.79675     713.0323     489.1780   1414.79675     713.0323     489.1780
   1414.78149     711.2354     489.3379   1414.78149     711.2354     489.3379
   1414.76624     710.5280     486.9971   1414.76624     710.5280     486.9971
   1414.75098     709.3090     487.3757   1414.75098     709.3090     487.3757
   1414.73572     706.0913     485.6311   1414.73572     706.0913     485.6311
   1414.72046     704.9963     484.8852   1414.72046     704.9963     484.8852
   1414.70520     703.4192     484.4714   1414.70520     703.4192     484.4714
   1414.68994     701.5089     484.0493   1414.68994     701.5089     484.0493
   1414.67468     699.8354     483.4855   1414.67468     699.8354     483.4855
   1414.65942     697.0714     482.0085   1414.65942     697.0714     482.0085
   1414.64417     696.8130     480.9887   1414.64417     696.8130     480.9887
   1414.62891     694.2498     480.6964   1414.62891     694.2498     480.6964
   1414.61365     692.0336     479.7397   1414.61365     692.0336     479.7397
   1414.59839     690.1781     478.1793   1414.59839     690.1781     478.1793
   1414.58313     687.4972     476.8451   1414.58313     687.4972     476.8451
   1414.56787     686.8135     476.6999   1414.56787     686.8135     476.6999
   1414.55261     683.5515     475.3421   1414.55261     683.5515     475.3421
   1414.53735     681.5572     474.7386   1414.53735     681.5572     474.7386
   1414.52209     679.6999     472.5695   1414.52209     679.6999     472.5695
   1414.50684     677.2842     472.7413   1414.50684     677.2842     472.7413
   1414.49158     674.4133     471.0512   1414.49158     674.4133     471.0512
   1414.47632     673.5829     469.9093   1414.47632     673.5829     469.9093
   1414.46106     672.2039     469.2859   1414.46106     672.2039     469.2859
   1414.44580     668.7886     467.9165   1414.44580     668.7886     467.9165
   1414.43054     667.1094     467.1468   1414.43054     667.1094     467.1468
   1414.41528     665.5302     465.8116   1414.41528     665.5302     465.8116
   1414.40002     662.0515     464.6288   1414.40002     662.0515     464.6288
   1414.38477     659.8294     463.6215   1414.38477     659.8294     463.6215
   1414.36951     658.8993     462.3650   1414.36951     658.8993     462.3650
   1414.35425     656.5070     461.8358   1414.35425     656.5070     461.8358
   1414.33899     652.5382     459.1426   1414.33899     652.5382     459.1426
   1414.32373     651.1589     459.1910   1414.32373     651.1589     459.1910
   1414.30847     648.1121     457.2645   1414.30847     648.1121     457.2645
   1414.29321     646.0692     456.1516   1414.29321     646.0692     456.1516
   1414.27795     644.1530     454.8769   1414.27795     644.1530     454.8769
   1414.26270     641.3083     453.8013   1414.26270     641.3083     453.8013
   1414.24744     639.6964     452.6306   1414.24744     639.6964     452.6306
   1414.23218     636.2518     451.4688   1414.23218     636.2518     451.4688
   1414.21692     634.0289     449.0920   1414.21692     634.0289     449.0920
   1414.20166     632.4966     448.5164   1414.20166     632.4966     448.5164
   1414.18640     629.1266     446.8116   1414.18640     629.1266     446.8116
   1414.17114     627.7955     444.9779   1414.17114     627.7955     444.9779
   1414.15588     625.4301     443.9052   1414.15588     625.4301     443.9052
   1414.14062     621.8748     443.0800   1414.14062     621.8748     443.0800
   1414.12537     619.6516     442.2589   1414.12537     619.6516     442.2589
   1414.11011     616.5820     439.5899   1414.11011     616.5820     439.5899
   1414.09485     613.5518     439.3000   1414.09485     613.5518     439.3000
   1414.07959     611.8566     437.4618   1414.07959     611.8566     437.4618
   1414.06433     608.6434     435.7864   1414.06433     608.6434     435.7864
   1414.04907     607.5173     434.7881   1414.04907     607.5173     434.7881
   1414.03381     603.1317     432.3367   1414.03381     603.1317     432.3367
   1414.01855     601.4768     431.1893   1414.01855     601.4768     431.1893
   1414.00330     619.1802     437.0757   1414.00330     619.1802     437.0757
   1413.98804     597.7860     428.3349   1413.98804     597.7860     428.3349
   1413.97278     593.1818     427.5038   1413.97278     593.1818     427.5038
   1413.95752     590.2689     425.3091   1413.95752     590.2689     425.3091
   1413.94226     588.3502     423.4051   1413.94226     588.3502     423.4051
   1413.92700     584.1138     422.4055   1413.92700     584.1138     422.4055
   1413.91174     582.1398     420.5974   1413.91174     582.1398     420.5974
   1413.89648     578.9870     418.8094   1413.89648     578.9870     418.8094
   1413.88123     576.8292     418.3938   1413.88123     576.8292     418.3938
   1413.86597     573.4150     416.0121   1413.86597     573.4150     416.0121
   1413.85071     571.6199     414.8250   1413.85071     571.6199     414.8250
   1413.83545     568.0788     412.9847   1413.83545     568.0788     412.9847
   1413.82019     565.3376     411.4087   1413.82019     565.3376     411.4087
   1413.80493     561.9235     409.0845   1413.80493     561.9235     409.0845
   1413.78967     559.6116     407.9406   1413.78967     559.6116     407.9406
   1413.77441     556.6790     405.9762   1413.77441     556.6790     405.9762
   1413.75916     553.2230     404.2359   1413.75916     553.2230     404.2359
   1413.74390     550.9701     402.9006   1413.74390     550.9701     402.9006
   1413.72864     547.9776     401.3344   1413.72864     547.9776     401.3344
   1413.71338     545.5052     400.2757   1413.71338     545.5052     400.2757
   1413.69812     543.0543     398.0887   1413.69812     543.0543     398.0887
   1413.68286     540.0799     396.5912   1413.68286     540.0799     396.5912
   1413.66760     537.0859     394.9850   1413.66760     537.0859     394.9850
   1413.65234     534.2370     393.5404   1413.65234     534.2370     393.5404
   1413.63708     531.9590     391.2544   1413.63708     531.9590     391.2544
   1413.62183     528.3164     389.3517   1413.62183     528.3164     389.3517
   1413.60657     525.9310     388.8060   1413.60657     525.9310     388.8060
   1413.59131     522.4890     387.3063   1413.59131     522.4890     387.3063
   1413.57605     520.0172     385.1914   1413.57605     520.0172     385.1914
   1413.56079     517.6012     383.7960   1413.56079     517.6012     383.7960
   1413.54553     515.1155     382.1674   1413.54553     515.1155     382.1674
   1413.53027     511.8592     380.4816   1413.53027     511.8592     380.4816
   1413.51501     508.6030     379.3541   1413.51501     508.6030     379.3541
   1413.49976     506.9379     376.8148   1413.49976     506.9379     376.8148
   1413.48450     503.8845     375.4782   1413.48450     503.8845     375.4782
   1413.46924     500.1460     374.4176   1413.46924     500.1460     374.4176
   1413.45398     497.2250     371.9731   1413.45398     497.2250     371.9731
   1413.43872     495.2141     370.7292   1413.43872     495.2141     370.7292
   1413.42346     492.8050     369.3853   1413.42346     492.8050     369.3853
   1413.40820     489.0403     367.8831   1413.40820     489.0403     367.8831
   1413.39294     487.4880     366.5001   1413.39294     487.4880     366.5001
   1413.37769     484.7536     364.5341   1413.37769     484.7536     364.5341
   1413.36243     482.1621     362.9560   1413.36243     482.1621     362.9560
   1413.34717     478.5286     361.6952   1413.34717     478.5286     361.6952
   1413.33191     476.1824     360.1388   1413.33191     476.1824     360.1388
   1413.31665     473.3169     358.8748   1413.31665     473.3169     358.8748
   1413.30139     471.1104     357.2711   1413.30139     471.1104     357.2711
   1413.28613     468.2198     355.1915   1413.28613     468.2198     355.1915
   1413.27087     465.7393     354.8719   1413.27087     465.7393     354.8719
   1413.25562     463.6344     353.1935   1413.25562     463.6344     353.1935
   1413.24036     460.8504     351.5691   1413.24036     460.8504     351.5691
   1413.22510     458.7923     350.1528   1413.22510     458.7923     350.1528
   1413.20984     455.8539     348.6211   1413.20984     455.8539     348.6211
   1413.19458     453.5380     347.4545   1413.19458     453.5380     347.4545
   1413.17932     450.5614     346.0778   1413.17932     450.5614     346.0778
   1413.16406     448.2301     345.1996   1413.16406     448.2301     345.1996
   1413.14880     445.7635     343.5171   1413.14880     445.7635     343.5171
   1413.13354     444.2056     342.6017   1413.13354     444.2056     342.6017
   1413.11829     441.2090     340.8737   1413.11829     441.2090     340.8737
   1413.10303     439.5780     339.9272   1413.10303     439.5780     339.9272
   1413.08777     436.3283     338.9985   1413.08777     436.3283     338.9985
   1413.07251     434.9743     337.3416   1413.07251     434.9743     337.3416
   1413.05725     432.7796     336.3575   1413.05725     432.7796     336.3575
   1413.04199     430.1441     335.1675   1413.04199     430.1441     335.1675
   1413.02673     427.7239     334.1711   1413.02673     427.7239     334.1711
   1413.01147     425.3168     332.7273   1413.01147     425.3168     332.7273
   1412.99622     423.4595     332.0766   1412.99622     423.4595     332.0766
   1412.98096     421.2972     331.4310   1412.98096     421.2972     331.4310
   1412.96570     419.9578     330.0616   1412.96570     419.9578     330.0616
   1412.95044     417.6454     329.2818   1412.95044     417.6454     329.2818
   1412.93518     415.9037     329.0960   1412.93518     415.9037     329.0960
   1412.91992     413.7204     328.1363   1412.91992     413.7204     328.1363
   1412.90466     412.7628     326.8833   1412.90466     412.7628     326.8833
   1412.88940     410.1565     326.4031   1412.88940     410.1565     326.4031
   1412.87415     408.7589     325.5678   1412.87415     408.7589     325.5678
   1412.85889     407.0348     324.7153   1412.85889     407.0348     324.7153
   1412.84363     404.8679     324.6483   1412.84363     404.8679     324.6483
   1412.82837     402.9586     323.9800   1412.82837     402.9586     323.9800
   1412.81311     401.6918     323.2066   1412.81311     401.6918     323.2066
   1412.79785     400.4539     322.4608   1412.79785     400.4539     322.4608
   1412.78259     399.2412     322.2977   1412.78259     399.2412     322.2977
   1412.76733     397.4612     321.6846   1412.76733     397.4612     321.6846
   1412.75208     395.9930     321.5129   1412.75208     395.9930     321.5129
   1412.73682     394.5493     321.1974   1412.73682     394.5493     321.1974
   1412.72156     393.4406     320.7784   1412.72156     393.4406     320.7784
   1412.70630     391.8939     320.9721   1412.70630     391.8939     320.9721
   1412.69104     390.5509     320.0635   1412.69104     390.5509     320.0635
   1412.67578     389.4164     320.3206   1412.67578     389.4164     320.3206
   1412.66052     387.9351     320.3086   1412.66052     387.9351     320.3086
   1412.64526     386.9032     319.8406   1412.64526     386.9032     319.8406
   1412.63000     386.1317     320.3300   1412.63000     386.1317     320.3300
   1412.61475     385.4991     320.3750   1412.61475     385.4991     320.3750
   1412.59949     384.0871     320.1762   1412.59949     384.0871     320.1762
   1412.58423     383.6692     320.4243   1412.58423     383.6692     320.4243
   1412.56897     383.2314     320.8547   1412.56897     383.2314     320.8547
   1412.55371     382.2911     321.4336   1412.55371     382.2911     321.4336
   1412.53845     381.2813     321.2766   1412.53845     381.2813     321.2766
   1412.52319     380.4612     321.8182   1412.52319     380.4612     321.8182
   1412.50793     379.7398     321.7074   1412.50793     379.7398     321.7074
   1412.49268     379.9837     322.8453   1412.49268     379.9837     322.8453
   1412.47742     379.0887     323.2083   1412.47742     379.0887     323.2083
   1412.46216     378.9790     324.5159   1412.46216     378.9790     324.5159
   1412.44690     378.5836     324.3809   1412.44690     378.5836     324.3809
   1412.43164     378.0930     325.3229   1412.43164     378.0930     325.3229
   1412.41638     377.7429     326.0490   1412.41638     377.7429     326.0490
   1412.40112     377.3207     326.9960   1412.40112     377.3207     326.9960
   1412.38586     376.9474     327.5463   1412.38586     376.9474     327.5463
   1412.37061     377.4211     328.5199   1412.37061     377.4211     328.5199
   1412.35535     377.3151     329.6548   1412.35535     377.3151     329.6548
   1412.34009     377.4253     331.2014   1412.34009     377.4253     331.2014
   1412.32483     377.0273     331.6734   1412.32483     377.0273     331.6734
   1412.30957     377.5782     332.9150   1412.30957     377.5782     332.9150
   1412.29431     378.1410     333.9920   1412.29431     378.1410     333.9920
   1412.27905     378.2858     335.3378   1412.27905     378.2858     335.3378
   1412.26379     377.7325     336.7219   1412.26379     377.7325     336.7219
   1412.24854     378.1155     337.7146   1412.24854     378.1155     337.7146
   1412.23328     379.2492     339.2629   1412.23328     379.2492     339.2629
   1412.21802     379.5367     340.5818   1412.21802     379.5367     340.5818
   1412.20276     379.5240     342.2798   1412.20276     379.5240     342.2798