#     FILENAME=!Skynet_57528_lach-cc-213_20622_21046.cyb.fits
#     BASENAME=Skynet_57528_lach-cc-213_20622_21046
#     SRC_NAME=lach-cc-213
#     OBSERVER=ccmadison16_9505
#     DATE_OBS=2016-05-20T20:08:51.680
#        OBSID=20622
#      SCANNUM=21046
#          MJD=57528.8405
#          UTC=72621
#     SCANTYPE=track
#     DATAMODE=HIRES
#     TUNEFREQ=1420.0000
# Actual_FREQ1=1420.0000
# Actual_FREQ2=1420.0000
#    LO1Tuning=6870.000
#     RFFILTER=1355_1435
#        OBSBW=-15.6250
#        NCHAN=1024 
#        FOCUS=37.1808
#           RA=06:51:32.31
#          DEC=-00:03:39.60
#      RA(hrs)=6.859000
#     DEC(deg)=-0.061000
#    AZIM(deg)=176.579
#    ELEV(deg)=51.303
#     IFattens=10.00, 9.00
#      WARNING=None
#    TCAL_XL1=7.9635
#    TCAL_YR1=9.1340
#    TCAL_XL2=7.9635
#    TCAL_YR2=9.1340
#     TRX_XL1=11.7060
#     TRX_YR1=11.7060
#     TRX_XL2=11.7060
#     TRX_YR2=11.7060
#        TAVE=1.0000
#Freq1(MHz)          XL1          YR1  Freq2(MHz)          XL2          YR2 

   1427.81250     357.3265     262.0558   1427.81250     357.3265     262.0558
   1427.79724     358.0600     262.9248   1427.79724     358.0600     262.9248
   1427.78198     358.6612     263.3240   1427.78198     358.6612     263.3240
   1427.76672     359.3412     263.9793   1427.76672     359.3412     263.9793
   1427.75146     360.3314     264.3998   1427.75146     360.3314     264.3998
   1427.73621     361.0934     265.1890   1427.73621     361.0934     265.1890
   1427.72095     362.1003     266.4514   1427.72095     362.1003     266.4514
   1427.70569     362.2673     266.6816   1427.70569     362.2673     266.6816
   1427.69043     363.9199     267.9086   1427.69043     363.9199     267.9086
   1427.67517     364.8043     268.7820   1427.67517     364.8043     268.7820
   1427.65991     365.7112     269.9391   1427.65991     365.7112     269.9391
   1427.64465     367.2321     270.5956   1427.64465     367.2321     270.5956
   1427.62939     368.6524     271.5926   1427.62939     368.6524     271.5926
   1427.61414     369.2311     272.7763   1427.61414     369.2311     272.7763
   1427.59888     370.9326     274.2455   1427.59888     370.9326     274.2455
   1427.58362     372.1901     274.6857   1427.58362     372.1901     274.6857
   1427.56836     373.3921     276.3403   1427.56836     373.3921     276.3403
   1427.55310     375.6177     276.9715   1427.55310     375.6177     276.9715
   1427.53784     376.8339     278.3518   1427.53784     376.8339     278.3518
   1427.52258     377.4336     279.6406   1427.52258     377.4336     279.6406
   1427.50732     378.9524     280.7341   1427.50732     378.9524     280.7341
   1427.49207     380.6871     282.1252   1427.49207     380.6871     282.1252
   1427.47681     382.5511     283.2006   1427.47681     382.5511     283.2006
   1427.46155     385.4032     285.5166   1427.46155     385.4032     285.5166
   1427.44629     386.0706     286.4930   1427.44629     386.0706     286.4930
   1427.43103     388.1501     287.9503   1427.43103     388.1501     287.9503
   1427.41577     389.3334     289.8459   1427.41577     389.3334     289.8459
   1427.40051     391.4647     290.7462   1427.40051     391.4647     290.7462
   1427.38525     393.4516     292.4711   1427.38525     393.4516     292.4711
   1427.37000     395.4734     294.1681   1427.37000     395.4734     294.1681
   1427.35474     396.8741     295.7974   1427.35474     396.8741     295.7974
   1427.33948     398.9427     297.5846   1427.33948     398.9427     297.5846
   1427.32422     401.2333     299.1584   1427.32422     401.2333     299.1584
   1427.30896     402.9403     301.3418   1427.30896     402.9403     301.3418
   1427.29370     405.0674     302.9673   1427.29370     405.0674     302.9673
   1427.27844     407.6450     304.3840   1427.27844     407.6450     304.3840
   1427.26318     409.4838     306.5638   1427.26318     409.4838     306.5638
   1427.24792     412.0172     308.1419   1427.24792     412.0172     308.1419
   1427.23267     413.8953     309.6643   1427.23267     413.8953     309.6643
   1427.21741     416.2207     311.9634   1427.21741     416.2207     311.9634
   1427.20215     418.4594     314.1441   1427.20215     418.4594     314.1441
   1427.18689     421.6998     315.8481   1427.18689     421.6998     315.8481
   1427.17163     422.4551     317.8186   1427.17163     422.4551     317.8186
   1427.15637     425.5126     319.5734   1427.15637     425.5126     319.5734
   1427.14111     428.1969     322.1052   1427.14111     428.1969     322.1052
   1427.12585     430.6552     323.8763   1427.12585     430.6552     323.8763
   1427.11060     432.9398     326.3363   1427.11060     432.9398     326.3363
   1427.09534     434.9378     327.9290   1427.09534     434.9378     327.9290
   1427.08008     438.0814     330.5076   1427.08008     438.0814     330.5076
   1427.06482     441.2869     332.5141   1427.06482     441.2869     332.5141
   1427.04956     443.0281     334.5402   1427.04956     443.0281     334.5402
   1427.03430     445.5605     336.6292   1427.03430     445.5605     336.6292
   1427.01904     448.4060     338.4296   1427.01904     448.4060     338.4296
   1427.00378     450.5099     341.2578   1427.00378     450.5099     341.2578
   1426.98853     453.1930     343.5376   1426.98853     453.1930     343.5376
   1426.97327     455.6781     345.9297   1426.97327     455.6781     345.9297
   1426.95801     459.3619     347.2964   1426.95801     459.3619     347.2964
   1426.94275     461.2015     350.4227   1426.94275     461.2015     350.4227
   1426.92749     464.1808     352.4328   1426.92749     464.1808     352.4328
   1426.91223     466.4057     354.2993   1426.91223     466.4057     354.2993
   1426.89697     469.3281     357.0592   1426.89697     469.3281     357.0592
   1426.88171     472.3461     358.6693   1426.88171     472.3461     358.6693
   1426.86646     475.2408     362.0601   1426.86646     475.2408     362.0601
   1426.85120     477.3501     364.1402   1426.85120     477.3501     364.1402
   1426.83594     481.2803     366.8811   1426.83594     481.2803     366.8811
   1426.82068     483.4079     369.1955   1426.82068     483.4079     369.1955
   1426.80542     485.2831     371.3965   1426.80542     485.2831     371.3965
   1426.79016     488.9276     374.0088   1426.79016     488.9276     374.0088
   1426.77490     491.7159     376.2080   1426.77490     491.7159     376.2080
   1426.75964     494.7127     378.7115   1426.75964     494.7127     378.7115
   1426.74438     497.4452     381.5836   1426.74438     497.4452     381.5836
   1426.72913     499.5489     383.5041   1426.72913     499.5489     383.5041
   1426.71387     502.5557     385.5728   1426.71387     502.5557     385.5728
   1426.69861     505.4254     388.3826   1426.69861     505.4254     388.3826
   1426.68335     507.9483     391.2340   1426.68335     507.9483     391.2340
   1426.66809     510.5432     393.8150   1426.66809     510.5432     393.8150
   1426.65283     513.9382     395.1194   1426.65283     513.9382     395.1194
   1426.63757     516.8409     397.5548   1426.63757     516.8409     397.5548
   1426.62231     518.6333     401.4739   1426.62231     518.6333     401.4739
   1426.60706     522.4507     403.6039   1426.60706     522.4507     403.6039
   1426.59180     524.8403     406.3259   1426.59180     524.8403     406.3259
   1426.57654     528.0314     409.0474   1426.57654     528.0314     409.0474
   1426.56128     529.9846     411.2331   1426.56128     529.9846     411.2331
   1426.54602     534.5920     413.6674   1426.54602     534.5920     413.6674
   1426.53076     535.9867     416.1234   1426.53076     535.9867     416.1234
   1426.51550     538.5917     419.1946   1426.51550     538.5917     419.1946
   1426.50024     540.7814     420.7617   1426.50024     540.7814     420.7617
   1426.48499     544.0366     423.6373   1426.48499     544.0366     423.6373
   1426.46973     546.7110     426.1886   1426.46973     546.7110     426.1886
   1426.45447     549.2869     428.7165   1426.45447     549.2869     428.7165
   1426.43921     551.0215     430.9440   1426.43921     551.0215     430.9440
   1426.42395     554.9843     432.7753   1426.42395     554.9843     432.7753
   1426.40869     557.5594     435.6250   1426.40869     557.5594     435.6250
   1426.39343     561.0259     438.0512   1426.39343     561.0259     438.0512
   1426.37817     562.5025     440.4338   1426.37817     562.5025     440.4338
   1426.36292     565.4717     443.1992   1426.36292     565.4717     443.1992
   1426.34766     568.3494     446.1298   1426.34766     568.3494     446.1298
   1426.33240     571.0222     448.3915   1426.33240     571.0222     448.3915
   1426.31714     573.8124     450.3645   1426.31714     573.8124     450.3645
   1426.30188     574.9239     453.7333   1426.30188     574.9239     453.7333
   1426.28662     578.5173     455.0660   1426.28662     578.5173     455.0660
   1426.27136     581.4284     457.3532   1426.27136     581.4284     457.3532
   1426.25610     583.9872     459.9316   1426.25610     583.9872     459.9316
   1426.24084     585.8005     463.1446   1426.24084     585.8005     463.1446
   1426.22559     588.2673     464.6249   1426.22559     588.2673     464.6249
   1426.21033     590.9881     467.8000   1426.21033     590.9881     467.8000
   1426.19507     592.4636     470.1766   1426.19507     592.4636     470.1766
   1426.17981     595.6252     471.9369   1426.17981     595.6252     471.9369
   1426.16455     597.7399     474.6906   1426.16455     597.7399     474.6906
   1426.14929     600.5438     476.2656   1426.14929     600.5438     476.2656
   1426.13403     602.7657     478.5190   1426.13403     602.7657     478.5190
   1426.11877     604.7045     480.9412   1426.11877     604.7045     480.9412
   1426.10352     607.6797     484.2056   1426.10352     607.6797     484.2056
   1426.08826     609.6703     486.5641   1426.08826     609.6703     486.5641
   1426.07300     611.5839     487.7355   1426.07300     611.5839     487.7355
   1426.05774     613.7067     490.1161   1426.05774     613.7067     490.1161
   1426.04248     616.9933     492.6214   1426.04248     616.9933     492.6214
   1426.02722     618.2878     495.3260   1426.02722     618.2878     495.3260
   1426.01196     620.4483     496.8533   1426.01196     620.4483     496.8533
   1425.99670     622.3767     499.1627   1425.99670     622.3767     499.1627
   1425.98145     625.5494     501.8121   1425.98145     625.5494     501.8121
   1425.96619     626.7790     503.6736   1425.96619     626.7790     503.6736
   1425.95093     627.8848     506.4328   1425.95093     627.8848     506.4328
   1425.93567     630.7943     508.0736   1425.93567     630.7943     508.0736
   1425.92041     632.2457     510.3838   1425.92041     632.2457     510.3838
   1425.90515     634.6545     511.5806   1425.90515     634.6545     511.5806
   1425.88989     636.4869     513.5976   1425.88989     636.4869     513.5976
   1425.87463     639.2431     516.7011   1425.87463     639.2431     516.7011
   1425.85938     640.0246     517.8971   1425.85938     640.0246     517.8971
   1425.84412     642.1487     520.3447   1425.84412     642.1487     520.3447
   1425.82886     643.5010     521.8705   1425.82886     643.5010     521.8705
   1425.81360     645.7393     524.4182   1425.81360     645.7393     524.4182
   1425.79834     647.8349     526.7299   1425.79834     647.8349     526.7299
   1425.78308     649.5399     528.5042   1425.78308     649.5399     528.5042
   1425.76782     650.9635     530.1635   1425.76782     650.9635     530.1635
   1425.75256     652.7698     531.9774   1425.75256     652.7698     531.9774
   1425.73730     652.9504     534.4846   1425.73730     652.9504     534.4846
   1425.72205     655.4734     535.5463   1425.72205     655.4734     535.5463
   1425.70679     657.0114     537.6440   1425.70679     657.0114     537.6440
   1425.69153     659.0604     539.9277   1425.69153     659.0604     539.9277
   1425.67627     660.0922     540.9005   1425.67627     660.0922     540.9005
   1425.66101     661.7001     543.2637   1425.66101     661.7001     543.2637
   1425.64575     662.8619     545.1077   1425.64575     662.8619     545.1077
   1425.63049     664.8799     546.8544   1425.63049     664.8799     546.8544
   1425.61523     666.0085     548.5353   1425.61523     666.0085     548.5353
   1425.59998     666.9134     550.0709   1425.59998     666.9134     550.0709
   1425.58472     669.9492     552.8287   1425.58472     669.9492     552.8287
   1425.56946     669.7916     553.2239   1425.56946     669.7916     553.2239
   1425.55420     671.4537     556.1436   1425.55420     671.4537     556.1436
   1425.53894     673.5410     557.4044   1425.53894     673.5410     557.4044
   1425.52368     673.2205     558.0593   1425.52368     673.2205     558.0593
   1425.50842     676.3626     560.5479   1425.50842     676.3626     560.5479
   1425.49316     676.8654     561.4739   1425.49316     676.8654     561.4739
   1425.47791     678.1227     563.3109   1425.47791     678.1227     563.3109
   1425.46265     678.9041     565.0905   1425.46265     678.9041     565.0905
   1425.44739     680.4625     567.1563   1425.44739     680.4625     567.1563
   1425.43213     681.3537     568.2936   1425.43213     681.3537     568.2936
   1425.41687     684.6026     571.3568   1425.41687     684.6026     571.3568
   1425.40161     683.4392     572.3629   1425.40161     683.4392     572.3629
   1425.38635     684.6296     573.6240   1425.38635     684.6296     573.6240
   1425.37109     687.0775     574.2863   1425.37109     687.0775     574.2863
   1425.35583     686.3120     575.5103   1425.35583     686.3120     575.5103
   1425.34058     688.6288     578.1746   1425.34058     688.6288     578.1746
   1425.32532     688.8977     578.5977   1425.32532     688.8977     578.5977
   1425.31006     688.4732     579.8221   1425.31006     688.4732     579.8221
   1425.29480     689.7412     581.3207   1425.29480     689.7412     581.3207
   1425.27954     690.6302     582.8818   1425.27954     690.6302     582.8818
   1425.26428     691.3166     584.8171   1425.26428     691.3166     584.8171
   1425.24902     693.0388     586.5316   1425.24902     693.0388     586.5316
   1425.23376     694.0855     586.9059   1425.23376     694.0855     586.9059
   1425.21851     693.5993     588.6934   1425.21851     693.5993     588.6934
   1425.20325     694.8762     589.3027   1425.20325     694.8762     589.3027
   1425.18799     695.1746     590.9603   1425.18799     695.1746     590.9603
   1425.17273     696.6757     592.1332   1425.17273     696.6757     592.1332
   1425.15747     695.1686     593.1805   1425.15747     695.1686     593.1805
   1425.14221     696.8749     594.7893   1425.14221     696.8749     594.7893
   1425.12695     696.8640     596.2197   1425.12695     696.8640     596.2197
   1425.11169     697.6735     597.1315   1425.11169     697.6735     597.1315
   1425.09644     697.4113     598.5162   1425.09644     697.4113     598.5162
   1425.08118     698.8347     598.7691   1425.08118     698.8347     598.7691
   1425.06592     698.7792     601.0991   1425.06592     698.7792     601.0991
   1425.05066     699.0590     601.4885   1425.05066     699.0590     601.4885
   1425.03540     701.2980     603.0115   1425.03540     701.2980     603.0115
   1425.02014     701.4266     602.7849   1425.02014     701.4266     602.7849
   1425.00488     701.9223     604.3022   1425.00488     701.9223     604.3022
   1424.98962     701.2960     605.9772   1424.98962     701.2960     605.9772
   1424.97437     702.3220     607.1074   1424.97437     702.3220     607.1074
   1424.95911     702.4879     607.8900   1424.95911     702.4879     607.8900
   1424.94385     703.4672     608.6054   1424.94385     703.4672     608.6054
   1424.92859     704.1528     609.2975   1424.92859     704.1528     609.2975
   1424.91333     703.2461     610.3308   1424.91333     703.2461     610.3308
   1424.89807     704.3790     611.7656   1424.89807     704.3790     611.7656
   1424.88281     703.9697     613.1890   1424.88281     703.9697     613.1890
   1424.86755     704.3939     612.9550   1424.86755     704.3939     612.9550
   1424.85229     705.5068     614.1425   1424.85229     705.5068     614.1425
   1424.83704     705.4557     614.8973   1424.83704     705.4557     614.8973
   1424.82178     705.7991     615.3242   1424.82178     705.7991     615.3242
   1424.80652     705.8695     616.5873   1424.80652     705.8695     616.5873
   1424.79126     706.6841     617.6536   1424.79126     706.6841     617.6536
   1424.77600     705.9979     618.0833   1424.77600     705.9979     618.0833
   1424.76074     705.6366     619.1628   1424.76074     705.6366     619.1628
   1424.74548     706.9509     618.8929   1424.74548     706.9509     618.8929
   1424.73022     707.0458     620.6774   1424.73022     707.0458     620.6774
   1424.71497     706.5946     621.1874   1424.71497     706.5946     621.1874
   1424.69971     705.3733     622.0480   1424.69971     705.3733     622.0480
   1424.68445     706.8052     622.9874   1424.68445     706.8052     622.9874
   1424.66919     706.8578     621.9095   1424.66919     706.8578     621.9095
   1424.65393     706.1199     623.8057   1424.65393     706.1199     623.8057
   1424.63867     706.9517     625.1317   1424.63867     706.9517     625.1317
   1424.62341     707.3931     624.7128   1424.62341     707.3931     624.7128
   1424.60815     707.2281     625.3054   1424.60815     707.2281     625.3054
   1424.59290     706.1063     626.0259   1424.59290     706.1063     626.0259
   1424.57764     707.1667     625.4475   1424.57764     707.1667     625.4475
   1424.56238     707.4299     626.7961   1424.56238     707.4299     626.7961
   1424.54712     707.7109     627.8448   1424.54712     707.7109     627.8448
   1424.53186     706.5500     628.9314   1424.53186     706.5500     628.9314
   1424.51660     706.6569     629.1266   1424.51660     706.6569     629.1266
   1424.50134     706.5383     630.2633   1424.50134     706.5383     630.2633
   1424.48608     705.6281     629.7214   1424.48608     705.6281     629.7214
   1424.47083     706.6880     629.9867   1424.47083     706.6880     629.9867
   1424.45557     706.3287     631.0814   1424.45557     706.3287     631.0814
   1424.44031     706.2384     630.5193   1424.44031     706.2384     630.5193
   1424.42505     706.7820     632.1886   1424.42505     706.7820     632.1886
   1424.40979     705.1871     632.4290   1424.40979     705.1871     632.4290
   1424.39453     706.8006     632.5406   1424.39453     706.8006     632.5406
   1424.37927     706.1382     632.6748   1424.37927     706.1382     632.6748
   1424.36401     704.4137     632.9805   1424.36401     704.4137     632.9805
   1424.34875     704.9783     632.9304   1424.34875     704.9783     632.9304
   1424.33350     704.6057     633.4828   1424.33350     704.6057     633.4828
   1424.31824     705.5762     633.0807   1424.31824     705.5762     633.0807
   1424.30298     704.9860     634.0719   1424.30298     704.9860     634.0719
   1424.28772     705.9232     634.6235   1424.28772     705.9232     634.6235
   1424.27246     704.4081     635.0858   1424.27246     704.4081     635.0858
   1424.25720     705.0907     635.6321   1424.25720     705.0907     635.6321
   1424.24194     704.4451     635.0318   1424.24194     704.4451     635.0318
   1424.22668     705.3189     636.0793   1424.22668     705.3189     636.0793
   1424.21143     703.7383     635.9330   1424.21143     703.7383     635.9330
   1424.19617     704.1552     636.1554   1424.19617     704.1552     636.1554
   1424.18091     703.9144     635.9897   1424.18091     703.9144     635.9897
   1424.16565     703.0784     636.1172   1424.16565     703.0784     636.1172
   1424.15039     702.5890     637.1092   1424.15039     702.5890     637.1092
   1424.13513     703.0555     637.2846   1424.13513     703.0555     637.2846
   1424.11987     704.7159     638.0493   1424.11987     704.7159     638.0493
   1424.10461     702.2101     637.4653   1424.10461     702.2101     637.4653
   1424.08936     702.4355     637.8513   1424.08936     702.4355     637.8513
   1424.07410     702.1439     637.6858   1424.07410     702.1439     637.6858
   1424.05884     702.2662     638.2404   1424.05884     702.2662     638.2404
   1424.04358     701.8355     638.1495   1424.04358     701.8355     638.1495
   1424.02832     702.1210     637.9549   1424.02832     702.1210     637.9549
   1424.01306     701.6384     637.7150   1424.01306     701.6384     637.7150
   1423.99780     701.0565     637.2072   1423.99780     701.0565     637.2072
   1423.98254     700.4489     638.0128   1423.98254     700.4489     638.0128
   1423.96729     700.6715     638.1124   1423.96729     700.6715     638.1124
   1423.95203     701.0179     638.2558   1423.95203     701.0179     638.2558
   1423.93677     699.6799     637.7108   1423.93677     699.6799     637.7108
   1423.92151     699.9504     638.0014   1423.92151     699.9504     638.0014
   1423.90625     699.4808     638.5646   1423.90625     699.4808     638.5646
   1423.89099     699.3613     638.0651   1423.89099     699.3613     638.0651
   1423.87573     699.9395     638.6294   1423.87573     699.9395     638.6294
   1423.86047     698.7529     638.1029   1423.86047     698.7529     638.1029
   1423.84521     699.3735     638.0284   1423.84521     699.3735     638.0284
   1423.82996     699.1031     636.9769   1423.82996     699.1031     636.9769
   1423.81470     698.6075     637.2090   1423.81470     698.6075     637.2090
   1423.79944     697.6898     637.7445   1423.79944     697.6898     637.7445
   1423.78418     697.8942     637.3245   1423.78418     697.8942     637.3245
   1423.76892     697.4849     638.4255   1423.76892     697.4849     638.4255
   1423.75366     696.9697     636.8494   1423.75366     696.9697     636.8494
   1423.73840     697.5525     635.7761   1423.73840     697.5525     635.7761
   1423.72314     697.0185     635.3510   1423.72314     697.0185     635.3510
   1423.70789     696.8301     634.7693   1423.70789     696.8301     634.7693
   1423.69263     696.3251     636.6027   1423.69263     696.3251     636.6027
   1423.67737     696.6408     635.1302   1423.67737     696.6408     635.1302
   1423.66211     695.7432     634.8970   1423.66211     695.7432     634.8970
   1423.64685     695.2892     635.3306   1423.64685     695.2892     635.3306
   1423.63159     695.9102     635.8448   1423.63159     695.9102     635.8448
   1423.61633     694.2271     634.9677   1423.61633     694.2271     634.9677
   1423.60107     695.3853     634.2006   1423.60107     695.3853     634.2006
   1423.58582     694.0552     633.8468   1423.58582     694.0552     633.8468
   1423.57056     694.4218     633.4005   1423.57056     694.4218     633.4005
   1423.55530     694.3929     633.8568   1423.55530     694.3929     633.8568
   1423.54004     693.9470     632.4494   1423.54004     693.9470     632.4494
   1423.52478     693.9249     633.3895   1423.52478     693.9249     633.3895
   1423.50952     693.6903     632.1611   1423.50952     693.6903     632.1611
   1423.49426     693.5319     631.0836   1423.49426     693.5319     631.0836
   1423.47900     692.8168     631.1095   1423.47900     692.8168     631.1095
   1423.46375     692.0023     630.5731   1423.46375     692.0023     630.5731
   1423.44849     691.4449     631.1025   1423.44849     691.4449     631.1025
   1423.43323     692.2719     629.9895   1423.43323     692.2719     629.9895
   1423.41797     691.5844     628.8556   1423.41797     691.5844     628.8556
   1423.40271     690.8350     627.5983   1423.40271     690.8350     627.5983
   1423.38745     691.2767     628.4534   1423.38745     691.2767     628.4534
   1423.37219     692.3688     628.7162   1423.37219     692.3688     628.7162
   1423.35693     692.2659     627.1013   1423.35693     692.2659     627.1013
   1423.34167     691.5906     626.3318   1423.34167     691.5906     626.3318
   1423.32642     690.1182     627.0331   1423.32642     690.1182     627.0331
   1423.31116     689.9261     626.1016   1423.31116     689.9261     626.1016
   1423.29590     689.6536     625.7123   1423.29590     689.6536     625.7123
   1423.28064     689.2867     624.5405   1423.28064     689.2867     624.5405
   1423.26538     689.2054     624.4879   1423.26538     689.2054     624.4879
   1423.25012     689.3353     622.9400   1423.25012     689.3353     622.9400
   1423.23486     689.9287     621.8943   1423.23486     689.9287     621.8943
   1423.21960     688.2104     622.0596   1423.21960     688.2104     622.0596
   1423.20435     689.0880     621.9292   1423.20435     689.0880     621.9292
   1423.18909     687.9278     621.5540   1423.18909     687.9278     621.5540
   1423.17383     688.4036     620.3258   1423.17383     688.4036     620.3258
   1423.15857     688.2789     619.4166   1423.15857     688.2789     619.4166
   1423.14331     688.2830     620.1997   1423.14331     688.2830     620.1997
   1423.12805     687.6898     617.4737   1423.12805     687.6898     617.4737
   1423.11279     687.9267     617.0465   1423.11279     687.9267     617.0465
   1423.09753     686.3702     617.0361   1423.09753     686.3702     617.0361
   1423.08228     687.2749     615.8259   1423.08228     687.2749     615.8259
   1423.06702     687.1893     615.1512   1423.06702     687.1893     615.1512
   1423.05176     685.7828     614.0606   1423.05176     685.7828     614.0606
   1423.03650     686.5992     613.0914   1423.03650     686.5992     613.0914
   1423.02124     686.8123     612.4575   1423.02124     686.8123     612.4575
   1423.00598     686.3870     612.5244   1423.00598     686.3870     612.5244
   1422.99072     685.7090     610.6586   1422.99072     685.7090     610.6586
   1422.97546     686.1815     610.3999   1422.97546     686.1815     610.3999
   1422.96021     685.8374     609.2686   1422.96021     685.8374     609.2686
   1422.94495     684.3517     607.6078   1422.94495     684.3517     607.6078
   1422.92969     685.0403     608.3959   1422.92969     685.0403     608.3959
   1422.91443     684.5279     606.6442   1422.91443     684.5279     606.6442
   1422.89917     685.0179     606.4329   1422.89917     685.0179     606.4329
   1422.88391     685.0302     604.2155   1422.88391     685.0302     604.2155
   1422.86865     683.6636     604.2152   1422.86865     683.6636     604.2152
   1422.85339     684.8705     603.2021   1422.85339     684.8705     603.2021
   1422.83813     684.7484     602.8839   1422.83813     684.7484     602.8839
   1422.82288     683.6573     601.9957   1422.82288     683.6573     601.9957
   1422.80762     684.0263     600.6772   1422.80762     684.0263     600.6772
   1422.79236     683.7692     598.7507   1422.79236     683.7692     598.7507
   1422.77710     683.0361     598.3722   1422.77710     683.0361     598.3722
   1422.76184     683.0040     597.5723   1422.76184     683.0040     597.5723
   1422.74658     682.6173     597.1301   1422.74658     682.6173     597.1301
   1422.73132     682.6449     595.9453   1422.73132     682.6449     595.9453
   1422.71606     682.5469     595.3483   1422.71606     682.5469     595.3483
   1422.70081     682.5413     593.8273   1422.70081     682.5413     593.8273
   1422.68555     682.0056     592.1212   1422.68555     682.0056     592.1212
   1422.67029     681.4238     591.8495   1422.67029     681.4238     591.8495
   1422.65503     682.3848     590.8583   1422.65503     682.3848     590.8583
   1422.63977     681.7659     589.4302   1422.63977     681.7659     589.4302
   1422.62451     681.3268     587.8214   1422.62451     681.3268     587.8214
   1422.60925     681.5954     587.1457   1422.60925     681.5954     587.1457
   1422.59399     680.7096     586.0167   1422.59399     680.7096     586.0167
   1422.57874     681.1872     585.4544   1422.57874     681.1872     585.4544
   1422.56348     681.6734     584.7614   1422.56348     681.6734     584.7614
   1422.54822     680.9246     583.4918   1422.54822     680.9246     583.4918
   1422.53296     680.0608     582.8623   1422.53296     680.0608     582.8623
   1422.51770     679.9645     581.6864   1422.51770     679.9645     581.6864
   1422.50244     678.2249     580.0486   1422.50244     678.2249     580.0486
   1422.48718     679.7081     578.2629   1422.48718     679.7081     578.2629
   1422.47192     679.7753     577.8369   1422.47192     679.7753     577.8369
   1422.45667     679.5998     577.3037   1422.45667     679.5998     577.3037
   1422.44141     680.4371     575.7574   1422.44141     680.4371     575.7574
   1422.42615     678.4522     574.6271   1422.42615     678.4522     574.6271
   1422.41089     678.7813     574.6528   1422.41089     678.7813     574.6528
   1422.39563     679.4626     572.1336   1422.39563     679.4626     572.1336
   1422.38037     679.6334     571.1689   1422.38037     679.6334     571.1689
   1422.36511     679.2799     569.3028   1422.36511     679.2799     569.3028
   1422.34985     678.1215     569.0763   1422.34985     678.1215     569.0763
   1422.33459     677.7726     568.2103   1422.33459     677.7726     568.2103
   1422.31934     678.4786     567.2647   1422.31934     678.4786     567.2647
   1422.30408     677.7145     564.8291   1422.30408     677.7145     564.8291
   1422.28882     677.1320     564.3105   1422.28882     677.1320     564.3105
   1422.27356     678.2357     564.2972   1422.27356     678.2357     564.2972
   1422.25830     677.1972     562.7067   1422.25830     677.1972     562.7067
   1422.24304     676.8740     561.4487   1422.24304     676.8740     561.4487
   1422.22778     678.1028     559.7301   1422.22778     678.1028     559.7301
   1422.21252     678.3051     559.2308   1422.21252     678.3051     559.2308
   1422.19727     676.3853     556.9814   1422.19727     676.3853     556.9814
   1422.18201     676.0076     556.6912   1422.18201     676.0076     556.6912
   1422.16675     676.5368     555.5410   1422.16675     676.5368     555.5410
   1422.15149     676.0959     553.9823   1422.15149     676.0959     553.9823
   1422.13623     675.7838     553.3755   1422.13623     675.7838     553.3755
   1422.12097     675.7293     551.5748   1422.12097     675.7293     551.5748
   1422.10571     674.9818     550.4454   1422.10571     674.9818     550.4454
   1422.09045     675.3386     548.6792   1422.09045     675.3386     548.6792
   1422.07520     675.3813     547.7836   1422.07520     675.3813     547.7836
   1422.05994     675.1044     546.8037   1422.05994     675.1044     546.8037
   1422.04468     674.8838     545.6997   1422.04468     674.8838     545.6997
   1422.02942     673.8407     543.5380   1422.02942     673.8407     543.5380
   1422.01416     674.9907     543.5891   1422.01416     674.9907     543.5891
   1421.99890     674.6896     541.4422   1421.99890     674.6896     541.4422
   1421.98364     673.6252     541.1083   1421.98364     673.6252     541.1083
   1421.96838     673.8386     540.2516   1421.96838     673.8386     540.2516
   1421.95312     673.7566     538.1213   1421.95312     673.7566     538.1213
   1421.93787     673.9713     537.7108   1421.93787     673.9713     537.7108
   1421.92261     673.4487     535.5452   1421.92261     673.4487     535.5452
   1421.90735     673.9717     535.6534   1421.90735     673.9717     535.6534
   1421.89209     673.1801     533.1586   1421.89209     673.1801     533.1586
   1421.87683     672.6326     532.4816   1421.87683     672.6326     532.4816
   1421.86157     672.9441     530.8878   1421.86157     672.9441     530.8878
   1421.84631     673.5850     530.0809   1421.84631     673.5850     530.0809
   1421.83105     672.3598     528.8334   1421.83105     672.3598     528.8334
   1421.81580     672.6345     527.6240   1421.81580     672.6345     527.6240
   1421.80054     672.2352     526.8311   1421.80054     672.2352     526.8311
   1421.78528     671.4368     525.8664   1421.78528     671.4368     525.8664
   1421.77002     671.1459     524.3506   1421.77002     671.1459     524.3506
   1421.75476     670.7163     523.4178   1421.75476     670.7163     523.4178
   1421.73950     671.0996     521.1588   1421.73950     671.0996     521.1588
   1421.72424     671.1284     520.5320   1421.72424     671.1284     520.5320
   1421.70898     669.9080     519.8575   1421.70898     669.9080     519.8575
   1421.69373     670.3245     518.2154   1421.69373     670.3245     518.2154
   1421.67847     670.6360     516.3394   1421.67847     670.6360     516.3394
   1421.66321     669.9000     516.0250   1421.66321     669.9000     516.0250
   1421.64795     670.1341     514.4330   1421.64795     670.1341     514.4330
   1421.63269     669.0576     513.1008   1421.63269     669.0576     513.1008
   1421.61743     669.4441     511.4847   1421.61743     669.4441     511.4847
   1421.60217     669.3779     511.3549   1421.60217     669.3779     511.3549
   1421.58691     669.0731     510.4289   1421.58691     669.0731     510.4289
   1421.57166     668.8207     509.0989   1421.57166     668.8207     509.0989
   1421.55640     668.5958     506.8747   1421.55640     668.5958     506.8747
   1421.54114     668.6014     506.2070   1421.54114     668.6014     506.2070
   1421.52588     667.9206     505.1974   1421.52588     667.9206     505.1974
   1421.51062     668.0248     503.9828   1421.51062     668.0248     503.9828
   1421.49536     668.1220     502.9256   1421.49536     668.1220     502.9256
   1421.48010     666.7806     500.8676   1421.48010     666.7806     500.8676
   1421.46484     667.6274     500.1385   1421.46484     667.6274     500.1385
   1421.44958     666.6121     500.2243   1421.44958     666.6121     500.2243
   1421.43433     667.4370     497.8570   1421.43433     667.4370     497.8570
   1421.41907     667.1917     497.8590   1421.41907     667.1917     497.8590
   1421.40381     666.3300     495.4318   1421.40381     666.3300     495.4318
   1421.38855     665.5325     494.3842   1421.38855     665.5325     494.3842
   1421.37329     665.7072     493.3161   1421.37329     665.7072     493.3161
   1421.35803     666.4045     492.6196   1421.35803     666.4045     492.6196
   1421.34277     665.7040     490.6156   1421.34277     665.7040     490.6156
   1421.32751     666.3419     490.0654   1421.32751     666.3419     490.0654
   1421.31226     667.1353     488.1876   1421.31226     667.1353     488.1876
   1421.29700     664.8976     487.8540   1421.29700     664.8976     487.8540
   1421.28174     663.6539     486.7296   1421.28174     663.6539     486.7296
   1421.26648     663.6532     485.0738   1421.26648     663.6532     485.0738
   1421.25122     663.1805     483.9931   1421.25122     663.1805     483.9931
   1421.23596     663.3083     483.2229   1421.23596     663.3083     483.2229
   1421.22070     663.4343     481.7074   1421.22070     663.4343     481.7074
   1421.20544     662.6533     480.6518   1421.20544     662.6533     480.6518
   1421.19019     663.3294     480.1217   1421.19019     663.3294     480.1217
   1421.17493     661.3884     478.7103   1421.17493     661.3884     478.7103
   1421.15967     661.7028     477.7372   1421.15967     661.7028     477.7372
   1421.14441     662.1516     476.8585   1421.14441     662.1516     476.8585
   1421.12915     661.4512     475.7975   1421.12915     661.4512     475.7975
   1421.11389     661.3214     474.6785   1421.11389     661.3214     474.6785
   1421.09863     661.9354     472.7126   1421.09863     661.9354     472.7126
   1421.08337     660.7057     473.0212   1421.08337     660.7057     473.0212
   1421.06812     661.8057     471.3430   1421.06812     661.8057     471.3430
   1421.05286     659.8883     470.4312   1421.05286     659.8883     470.4312
   1421.03760     660.6472     468.9538   1421.03760     660.6472     468.9538
   1421.02234     659.7822     467.7189   1421.02234     659.7822     467.7189
   1421.00708     660.8083     467.2330   1421.00708     660.8083     467.2330
   1420.99182     659.5986     465.9611   1420.99182     659.5986     465.9611
   1420.97656     660.3868     464.5641   1420.97656     660.3868     464.5641
   1420.96130     659.4473     464.0066   1420.96130     659.4473     464.0066
   1420.94604     659.0615     462.0818   1420.94604     659.0615     462.0818
   1420.93079     659.6811     462.1645   1420.93079     659.6811     462.1645
   1420.91553     659.1284     461.5522   1420.91553     659.1284     461.5522
   1420.90027     658.6309     459.9492   1420.90027     658.6309     459.9492
   1420.88501     658.1832     458.7911   1420.88501     658.1832     458.7911
   1420.86975     657.8409     458.1181   1420.86975     657.8409     458.1181
   1420.85449     658.8339     457.2457   1420.85449     658.8339     457.2457
   1420.83923     657.9946     456.8507   1420.83923     657.9946     456.8507
   1420.82397     656.4720     455.2890   1420.82397     656.4720     455.2890
   1420.80872     658.2073     455.3265   1420.80872     658.2073     455.3265
   1420.79346     658.0593     454.6833   1420.79346     658.0593     454.6833
   1420.77820     656.9450     453.2278   1420.77820     656.9450     453.2278
   1420.76294     658.5995     452.7142   1420.76294     658.5995     452.7142
   1420.74768     658.2935     452.1068   1420.74768     658.2935     452.1068
   1420.73242     658.4366     450.6662   1420.73242     658.4366     450.6662
   1420.71716     658.5790     450.2285   1420.71716     658.5790     450.2285
   1420.70190     658.0173     449.2534   1420.70190     658.0173     449.2534
   1420.68665     657.2694     447.8654   1420.68665     657.2694     447.8654
   1420.67139     656.5524     447.7484   1420.67139     656.5524     447.7484
   1420.65613     657.5784     446.5829   1420.65613     657.5784     446.5829
   1420.64087     656.8826     446.1243   1420.64087     656.8826     446.1243
   1420.62561     656.6596     444.9443   1420.62561     656.6596     444.9443
   1420.61035     657.0462     444.9024   1420.61035     657.0462     444.9024
   1420.59509     657.1193     444.2740   1420.59509     657.1193     444.2740
   1420.57983     657.8837     443.6300   1420.57983     657.8837     443.6300
   1420.56458     658.5735     443.1221   1420.56458     658.5735     443.1221
   1420.54932     661.6024     442.9632   1420.54932     661.6024     442.9632
   1420.53406     661.5893     443.2239   1420.53406     661.5893     443.2239
   1420.51880     662.5411     442.5693   1420.51880     662.5411     442.5693
   1420.50354     660.4216     442.0174   1420.50354     660.4216     442.0174
   1420.48828     660.5326     441.0101   1420.48828     660.5326     441.0101
   1420.47302     658.5471     439.8479   1420.47302     658.5471     439.8479
   1420.45776     658.5554     439.2268   1420.45776     658.5554     439.2268
   1420.44250     659.1075     438.0140   1420.44250     659.1075     438.0140
   1420.42725     659.1779     437.7843   1420.42725     659.1779     437.7843
   1420.41199     659.7650     437.3069   1420.41199     659.7650     437.3069
   1420.39673     659.9276     436.8987   1420.39673     659.9276     436.8987
   1420.38147     660.7276     436.8578   1420.38147     660.7276     436.8578
   1420.36621     662.5271     437.0434   1420.36621     662.5271     437.0434
   1420.35095     665.2085     438.4758   1420.35095     665.2085     438.4758
   1420.33569     672.1360     441.7599   1420.33569     672.1360     441.7599
   1420.32043     679.8746     446.1018   1420.32043     679.8746     446.1018
   1420.30518     689.5181     451.4741   1420.30518     689.5181     451.4741
   1420.28992     700.9696     458.5131   1420.28992     700.9696     458.5131
   1420.27466     725.7809     472.4623   1420.27466     725.7809     472.4623
   1420.25940     785.5138     508.6393   1420.25940     785.5138     508.6393
   1420.24414     960.8878     621.6915   1420.24414     960.8878     621.6915
   1420.22888    1305.7539     836.5449   1420.22888    1305.7539     836.5449
   1420.21362    1721.2413    1096.0906   1420.21362    1721.2413    1096.0906
   1420.19836    1888.4161    1199.2496   1420.19836    1888.4161    1199.2496
   1420.18311    1590.6624    1009.2033   1420.18311    1590.6624    1009.2033
   1420.16785    1172.3583     747.4476   1420.16785    1172.3583     747.4476
   1420.15259    1118.5593     715.4913   1420.15259    1118.5593     715.4913
   1420.13733    1510.9987     959.9011   1420.13733    1510.9987     959.9011
   1420.12207    1723.5797    1089.4058   1420.12207    1723.5797    1089.4058
   1420.10681    1720.7000    1087.6039   1420.10681    1720.7000    1087.6039
   1420.09155    1660.9379    1048.5299   1420.09155    1660.9379    1048.5299
   1420.07629    1552.5480     979.4250   1420.07629    1552.5480     979.4250
   1420.06104    1529.7314     963.5051   1420.06104    1529.7314     963.5051
   1420.04578    1693.3997    1065.8694   1420.04578    1693.3997    1065.8694
   1420.03052    1787.2397    1125.8164   1420.03052    1787.2397    1125.8164
   1420.01526    1761.2726    1104.3893   1420.01526    1761.2726    1104.3893
   1420.00000    1599.6450    1003.2070   1420.00000    1599.6450    1003.2070
   1419.98474    1438.0177     902.0247   1419.98474    1438.0177     902.0247
   1419.96948    1280.4229     802.2549   1419.96948    1280.4229     802.2549
   1419.95422    1034.9358     650.8647   1419.95422    1034.9358     650.8647
   1419.93896     890.2325     561.9291   1419.93896     890.2325     561.9291
   1419.92371     818.0452     517.5555   1419.92371     818.0452     517.5555
   1419.90845     769.5508     486.2969   1419.90845     769.5508     486.2969
   1419.89319     731.2469     463.2652   1419.89319     731.2469     463.2652
   1419.87793     704.8559     446.2882   1419.87793     704.8559     446.2882
   1419.86267     685.4568     434.2547   1419.86267     685.4568     434.2547
   1419.84741     672.6758     426.5656   1419.84741     672.6758     426.5656
   1419.83215     664.0866     420.4819   1419.83215     664.0866     420.4819
   1419.81689     659.7259     417.4430   1419.81689     659.7259     417.4430
   1419.80164     654.9233     413.6642   1419.80164     654.9233     413.6642
   1419.78638     653.3942     412.8957   1419.78638     653.3942     412.8957
   1419.77112     651.9210     411.1653   1419.77112     651.9210     411.1653
   1419.75586     651.7133     411.3851   1419.75586     651.7133     411.3851
   1419.74060     651.3378     409.9805   1419.74060     651.3378     409.9805
   1419.72534     649.5369     409.0073   1419.72534     649.5369     409.0073
   1419.71008     650.7864     408.0240   1419.71008     650.7864     408.0240
   1419.69482     649.3554     408.3856   1419.69482     649.3554     408.3856
   1419.67957     649.0393     408.5142   1419.67957     649.0393     408.5142
   1419.66431     651.1870     407.4830   1419.66431     651.1870     407.4830
   1419.64905     650.0770     407.1419   1419.64905     650.0770     407.1419
   1419.63379     650.2012     407.2131   1419.63379     650.2012     407.2131
   1419.61853     649.9064     407.1242   1419.61853     649.9064     407.1242
   1419.60327     650.1620     406.6802   1419.60327     650.1620     406.6802
   1419.58801     650.8138     406.8753   1419.58801     650.8138     406.8753
   1419.57275     650.0558     406.5955   1419.57275     650.0558     406.5955
   1419.55750     650.4027     406.4169   1419.55750     650.4027     406.4169
   1419.54224     651.5706     406.2358   1419.54224     651.5706     406.2358
   1419.52698     650.5190     405.8192   1419.52698     650.5190     405.8192
   1419.51172     651.2799     405.4154   1419.51172     651.2799     405.4154
   1419.49646     651.4930     406.1549   1419.49646     651.4930     406.1549
   1419.48120     651.1688     405.2807   1419.48120     651.1688     405.2807
   1419.46594     652.0832     405.1392   1419.46594     652.0832     405.1392
   1419.45068     653.0280     405.3447   1419.45068     653.0280     405.3447
   1419.43542     651.9111     405.1692   1419.43542     651.9111     405.1692
   1419.42017     652.6862     405.4562   1419.42017     652.6862     405.4562
   1419.40491     653.3724     405.4403   1419.40491     653.3724     405.4403
   1419.38965     653.6507     405.2333   1419.38965     653.6507     405.2333
   1419.37439     653.9192     405.0105   1419.37439     653.9192     405.0105
   1419.35913     654.3545     404.7973   1419.35913     654.3545     404.7973
   1419.34387     654.7924     405.4693   1419.34387     654.7924     405.4693
   1419.32861     655.7364     404.7344   1419.32861     655.7364     404.7344
   1419.31335     655.5524     404.7026   1419.31335     655.5524     404.7026
   1419.29810     655.6972     405.4621   1419.29810     655.6972     405.4621
   1419.28284     656.7625     405.3305   1419.28284     656.7625     405.3305
   1419.26758     660.0051     404.4637   1419.26758     660.0051     404.4637
   1419.25232     657.9852     405.2564   1419.25232     657.9852     405.2564
   1419.23706     656.9129     405.5863   1419.23706     656.9129     405.5863
   1419.22180     657.1725     406.1664   1419.22180     657.1725     406.1664
   1419.20654     657.8373     406.2319   1419.20654     657.8373     406.2319
   1419.19128     658.4511     406.3856   1419.19128     658.4511     406.3856
   1419.17603     658.7287     406.5471   1419.17603     658.7287     406.5471
   1419.16077     659.5386     406.4654   1419.16077     659.5386     406.4654
   1419.14551     659.9274     405.7371   1419.14551     659.9274     405.7371
   1419.13025     661.5314     406.4082   1419.13025     661.5314     406.4082
   1419.11499     660.3223     406.7897   1419.11499     660.3223     406.7897
   1419.09973     661.7412     407.1013   1419.09973     661.7412     407.1013
   1419.08447     661.8302     407.2346   1419.08447     661.8302     407.2346
   1419.06921     663.0692     407.1643   1419.06921     663.0692     407.1643
   1419.05396     663.3594     407.4029   1419.05396     663.3594     407.4029
   1419.03870     664.2632     408.0550   1419.03870     664.2632     408.0550
   1419.02344     663.0781     407.8391   1419.02344     663.0781     407.8391
   1419.00818     664.5577     408.7982   1419.00818     664.5577     408.7982
   1418.99292     665.3031     408.0088   1418.99292     665.3031     408.0088
   1418.97766     664.8443     409.2687   1418.97766     664.8443     409.2687
   1418.96240     666.7516     408.8777   1418.96240     666.7516     408.8777
   1418.94714     666.4365     410.1464   1418.94714     666.4365     410.1464
   1418.93188     665.7977     410.0444   1418.93188     665.7977     410.0444
   1418.91663     667.8524     410.3191   1418.91663     667.8524     410.3191
   1418.90137     669.0802     410.4140   1418.90137     669.0802     410.4140
   1418.88611     670.3453     410.9028   1418.88611     670.3453     410.9028
   1418.87085     669.5348     410.8262   1418.87085     669.5348     410.8262
   1418.85559     670.5662     411.3086   1418.85559     670.5662     411.3086
   1418.84033     671.2969     411.9969   1418.84033     671.2969     411.9969
   1418.82507     671.8431     411.8725   1418.82507     671.8431     411.8725
   1418.80981     671.7455     412.3597   1418.80981     671.7455     412.3597
   1418.79456     673.7756     413.4377   1418.79456     673.7756     413.4377
   1418.77930     674.0555     413.4362   1418.77930     674.0555     413.4362
   1418.76404     674.9354     414.0893   1418.76404     674.9354     414.0893
   1418.74878     675.4723     414.3617   1418.74878     675.4723     414.3617
   1418.73352     676.6235     414.7694   1418.73352     676.6235     414.7694
   1418.71826     677.0025     415.1670   1418.71826     677.0025     415.1670
   1418.70300     676.8130     416.1057   1418.70300     676.8130     416.1057
   1418.68774     677.6943     415.8840   1418.68774     677.6943     415.8840
   1418.67249     678.8558     416.7137   1418.67249     678.8558     416.7137
   1418.65723     679.4105     417.0152   1418.65723     679.4105     417.0152
   1418.64197     680.4933     417.6642   1418.64197     680.4933     417.6642
   1418.62671     682.1232     418.0956   1418.62671     682.1232     418.0956
   1418.61145     682.7399     418.9665   1418.61145     682.7399     418.9665
   1418.59619     682.3225     418.8407   1418.59619     682.3225     418.8407
   1418.58093     683.1558     419.4929   1418.58093     683.1558     419.4929
   1418.56567     684.0225     420.4140   1418.56567     684.0225     420.4140
   1418.55042     684.8326     420.2083   1418.55042     684.8326     420.2083
   1418.53516     686.1675     422.4127   1418.53516     686.1675     422.4127
   1418.51990     686.6853     422.6401   1418.51990     686.6853     422.6401
   1418.50464     687.6536     422.0879   1418.50464     687.6536     422.0879
   1418.48938     688.7248     422.2729   1418.48938     688.7248     422.2729
   1418.47412     689.8765     423.6275   1418.47412     689.8765     423.6275
   1418.45886     690.3778     424.0295   1418.45886     690.3778     424.0295
   1418.44360     690.7469     424.4254   1418.44360     690.7469     424.4254
   1418.42834     691.6907     425.6547   1418.42834     691.6907     425.6547
   1418.41309     693.6631     425.9997   1418.41309     693.6631     425.9997
   1418.39783     693.8068     426.4944   1418.39783     693.8068     426.4944
   1418.38257     694.7250     427.0094   1418.38257     694.7250     427.0094
   1418.36731     696.5539     427.4310   1418.36731     696.5539     427.4310
   1418.35205     695.5945     428.2687   1418.35205     695.5945     428.2687
   1418.33679     697.9279     428.2404   1418.33679     697.9279     428.2404
   1418.32153     698.6349     429.1780   1418.32153     698.6349     429.1780
   1418.30627     698.6923     429.7656   1418.30627     698.6923     429.7656
   1418.29102     700.8634     431.4302   1418.29102     700.8634     431.4302
   1418.27576     701.2560     432.0675   1418.27576     701.2560     432.0675
   1418.26050     702.5443     432.4157   1418.26050     702.5443     432.4157
   1418.24524     703.1295     433.1083   1418.24524     703.1295     433.1083
   1418.22998     703.9523     433.9667   1418.22998     703.9523     433.9667
   1418.21472     705.4026     434.0460   1418.21472     705.4026     434.0460
   1418.19946     705.1367     435.2637   1418.19946     705.1367     435.2637
   1418.18420     706.6637     436.4218   1418.18420     706.6637     436.4218
   1418.16895     707.4680     437.0853   1418.16895     707.4680     437.0853
   1418.15369     708.6287     437.0780   1418.15369     708.6287     437.0780
   1418.13843     710.0800     438.1297   1418.13843     710.0800     438.1297
   1418.12317     711.3708     438.9850   1418.12317     711.3708     438.9850
   1418.10791     712.4707     439.9469   1418.10791     712.4707     439.9469
   1418.09265     714.5684     440.3424   1418.09265     714.5684     440.3424
   1418.07739     714.4853     440.8026   1418.07739     714.4853     440.8026
   1418.06213     714.2559     441.6588   1418.06213     714.2559     441.6588
   1418.04688     715.0722     441.7328   1418.04688     715.0722     441.7328
   1418.03162     717.1434     443.6296   1418.03162     717.1434     443.6296
   1418.01636     718.9355     443.9244   1418.01636     718.9355     443.9244
   1418.00110     719.3458     445.0780   1418.00110     719.3458     445.0780
   1417.98584     720.3154     446.4731   1417.98584     720.3154     446.4731
   1417.97058     720.1552     446.5636   1417.97058     720.1552     446.5636
   1417.95532     721.9163     447.4527   1417.95532     721.9163     447.4527
   1417.94006     723.1890     448.3388   1417.94006     723.1890     448.3388
   1417.92480     724.1099     448.8967   1417.92480     724.1099     448.8967
   1417.90955     723.8365     449.9527   1417.90955     723.8365     449.9527
   1417.89429     727.2083     450.0915   1417.89429     727.2083     450.0915
   1417.87903     727.0541     451.9764   1417.87903     727.0541     451.9764
   1417.86377     729.1295     451.4626   1417.86377     729.1295     451.4626
   1417.84851     729.2369     452.2985   1417.84851     729.2369     452.2985
   1417.83325     730.7971     453.2760   1417.83325     730.7971     453.2760
   1417.81799     731.9073     454.2411   1417.81799     731.9073     454.2411
   1417.80273     732.7722     455.7089   1417.80273     732.7722     455.7089
   1417.78748     733.6381     455.7743   1417.78748     733.6381     455.7743
   1417.77222     734.2565     457.3310   1417.77222     734.2565     457.3310
   1417.75696     736.3739     458.1730   1417.75696     736.3739     458.1730
   1417.74170     737.3859     458.7467   1417.74170     737.3859     458.7467
   1417.72644     736.3840     458.9652   1417.72644     736.3840     458.9652
   1417.71118     739.4078     460.9113   1417.71118     739.4078     460.9113
   1417.69592     740.5999     460.9777   1417.69592     740.5999     460.9777
   1417.68066     741.5037     462.2186   1417.68066     741.5037     462.2186
   1417.66541     741.8929     463.0205   1417.66541     741.8929     463.0205
   1417.65015     743.2244     464.0485   1417.65015     743.2244     464.0485
   1417.63489     744.4650     465.1582   1417.63489     744.4650     465.1582
   1417.61963     744.7971     465.4425   1417.61963     744.7971     465.4425
   1417.60437     746.8390     466.3372   1417.60437     746.8390     466.3372
   1417.58911     746.3306     467.0547   1417.58911     746.3306     467.0547
   1417.57385     748.6225     467.7520   1417.57385     748.6225     467.7520
   1417.55859     749.5859     468.2313   1417.55859     749.5859     468.2313
   1417.54333     750.1942     469.7941   1417.54333     750.1942     469.7941
   1417.52808     752.2134     470.3920   1417.52808     752.2134     470.3920
   1417.51282     752.4170     471.2823   1417.51282     752.4170     471.2823
   1417.49756     753.0942     472.3963   1417.49756     753.0942     472.3963
   1417.48230     754.5438     473.1528   1417.48230     754.5438     473.1528
   1417.46704     754.6222     474.0810   1417.46704     754.6222     474.0810
   1417.45178     756.5549     474.9395   1417.45178     756.5549     474.9395
   1417.43652     757.0137     476.0323   1417.43652     757.0137     476.0323
   1417.42126     758.0825     476.6859   1417.42126     758.0825     476.6859
   1417.40601     758.0845     477.6234   1417.40601     758.0845     477.6234
   1417.39075     759.9649     478.3208   1417.39075     759.9649     478.3208
   1417.37549     761.3623     478.5663   1417.37549     761.3623     478.5663
   1417.36023     761.2304     479.9520   1417.36023     761.2304     479.9520
   1417.34497     762.6204     480.2771   1417.34497     762.6204     480.2771
   1417.32971     764.1706     481.6980   1417.32971     764.1706     481.6980
   1417.31445     764.5363     482.5004   1417.31445     764.5363     482.5004
   1417.29919     765.0935     482.7898   1417.29919     765.0935     482.7898
   1417.28394     766.4290     483.4285   1417.28394     766.4290     483.4285
   1417.26868     766.6104     484.0675   1417.26868     766.6104     484.0675
   1417.25342     768.5148     485.1191   1417.25342     768.5148     485.1191
   1417.23816     769.7986     486.8371   1417.23816     769.7986     486.8371
   1417.22290     770.0991     487.3683   1417.22290     770.0991     487.3683
   1417.20764     770.9037     487.6795   1417.20764     770.9037     487.6795
   1417.19238     770.2485     488.1860   1417.19238     770.2485     488.1860
   1417.17712     771.9842     488.6618   1417.17712     771.9842     488.6618
   1417.16187     772.4772     489.6326   1417.16187     772.4772     489.6326
   1417.14661     772.7878     490.7939   1417.14661     772.7878     490.7939
   1417.13135     775.2839     491.4543   1417.13135     775.2839     491.4543
   1417.11609     776.2630     492.5146   1417.11609     776.2630     492.5146
   1417.10083     776.1755     492.6667   1417.10083     776.1755     492.6667
   1417.08557     776.2430     493.6076   1417.08557     776.2430     493.6076
   1417.07031     777.4692     493.8662   1417.07031     777.4692     493.8662
   1417.05505     780.3298     494.5717   1417.05505     780.3298     494.5717
   1417.03979     780.2786     495.7863   1417.03979     780.2786     495.7863
   1417.02454     780.9577     495.8282   1417.02454     780.9577     495.8282
   1417.00928     780.6124     496.7980   1417.00928     780.6124     496.7980
   1416.99402     780.9357     497.2581   1416.99402     780.9357     497.2581
   1416.97876     782.1129     497.8737   1416.97876     782.1129     497.8737
   1416.96350     781.9185     498.3943   1416.96350     781.9185     498.3943
   1416.94824     781.2881     499.2701   1416.94824     781.2881     499.2701
   1416.93298     783.5582     499.9168   1416.93298     783.5582     499.9168
   1416.91772     784.3012     500.4576   1416.91772     784.3012     500.4576
   1416.90247     784.9499     501.1325   1416.90247     784.9499     501.1325
   1416.88721     784.4756     501.0926   1416.88721     784.4756     501.0926
   1416.87195     786.5989     501.0801   1416.87195     786.5989     501.0801
   1416.85669     785.4272     502.0090   1416.85669     785.4272     502.0090
   1416.84143     786.1345     503.0024   1416.84143     786.1345     503.0024
   1416.82617     786.1546     502.9923   1416.82617     786.1546     502.9923
   1416.81091     787.8756     503.6643   1416.81091     787.8756     503.6643
   1416.79565     788.3593     504.3110   1416.79565     788.3593     504.3110
   1416.78040     787.6589     505.2914   1416.78040     787.6589     505.2914
   1416.76514     789.3259     504.9142   1416.76514     789.3259     504.9142
   1416.74988     788.4899     505.3164   1416.74988     788.4899     505.3164
   1416.73462     789.9276     505.9158   1416.73462     789.9276     505.9158
   1416.71936     789.2292     505.8158   1416.71936     789.2292     505.8158
   1416.70410     790.7076     506.3901   1416.70410     790.7076     506.3901
   1416.68884     789.2614     505.9431   1416.68884     789.2614     505.9431
   1416.67358     790.5292     506.6306   1416.67358     790.5292     506.6306
   1416.65833     790.8367     507.0295   1416.65833     790.8367     507.0295
   1416.64307     791.4132     507.6780   1416.64307     791.4132     507.6780
   1416.62781     791.4287     507.5233   1416.62781     791.4287     507.5233
   1416.61255     792.3044     509.0915   1416.61255     792.3044     509.0915
   1416.59729     791.9030     508.7756   1416.59729     791.9030     508.7756
   1416.58203     791.9151     508.0593   1416.58203     791.9151     508.0593
   1416.56677     792.0923     507.6518   1416.56677     792.0923     507.6518
   1416.55151     792.6465     508.7358   1416.55151     792.6465     508.7358
   1416.53625     791.8458     508.6260   1416.53625     791.8458     508.6260
   1416.52100     792.4573     509.6375   1416.52100     792.4573     509.6375
   1416.50574     791.7535     508.8007   1416.50574     791.7535     508.8007
   1416.49048     791.9766     509.2781   1416.49048     791.9766     509.2781
   1416.47522     792.9756     509.0634   1416.47522     792.9756     509.0634
   1416.45996     793.0029     509.0303   1416.45996     793.0029     509.0303
   1416.44470     793.7430     509.3179   1416.44470     793.7430     509.3179
   1416.42944     791.4901     509.6029   1416.42944     791.4901     509.6029
   1416.41418     792.7265     509.4239   1416.41418     792.7265     509.4239
   1416.39893     790.9214     508.8137   1416.39893     790.9214     508.8137
   1416.38367     791.8388     509.4408   1416.38367     791.8388     509.4408
   1416.36841     793.0999     509.8736   1416.36841     793.0999     509.8736
   1416.35315     791.4005     509.5420   1416.35315     791.4005     509.5420
   1416.33789     791.6059     509.7659   1416.33789     791.6059     509.7659
   1416.32263     790.3962     509.2464   1416.32263     790.3962     509.2464
   1416.30737     791.6345     508.0365   1416.30737     791.6345     508.0365
   1416.29211     791.1459     508.1111   1416.29211     791.1459     508.1111
   1416.27686     791.4897     508.6243   1416.27686     791.4897     508.6243
   1416.26160     791.0232     508.2775   1416.26160     791.0232     508.2775
   1416.24634     790.5917     508.3091   1416.24634     790.5917     508.3091
   1416.23108     789.7085     507.4410   1416.23108     789.7085     507.4410
   1416.21582     790.3375     508.3466   1416.21582     790.3375     508.3466
   1416.20056     788.7893     508.3707   1416.20056     788.7893     508.3707
   1416.18530     789.0512     507.4571   1416.18530     789.0512     507.4571
   1416.17004     788.7628     507.1890   1416.17004     788.7628     507.1890
   1416.15479     788.8619     506.5884   1416.15479     788.8619     506.5884
   1416.13953     788.2540     506.3786   1416.13953     788.2540     506.3786
   1416.12427     787.6665     506.3217   1416.12427     787.6665     506.3217
   1416.10901     786.6560     505.6973   1416.10901     786.6560     505.6973
   1416.09375     786.9011     506.5574   1416.09375     786.9011     506.5574
   1416.07849     787.2570     505.6034   1416.07849     787.2570     505.6034
   1416.06323     785.9199     504.7166   1416.06323     785.9199     504.7166
   1416.04797     786.1061     505.1521   1416.04797     786.1061     505.1521
   1416.03271     785.5071     504.6060   1416.03271     785.5071     504.6060
   1416.01746     785.9651     504.5347   1416.01746     785.9651     504.5347
   1416.00220     783.8135     504.2165   1416.00220     783.8135     504.2165
   1415.98694     783.4649     503.8773   1415.98694     783.4649     503.8773
   1415.97168     781.9050     504.2321   1415.97168     781.9050     504.2321
   1415.95642     782.3463     503.6471   1415.95642     782.3463     503.6471
   1415.94116     782.2578     502.7371   1415.94116     782.2578     502.7371
   1415.92590     781.0319     502.4955   1415.92590     781.0319     502.4955
   1415.91064     780.1744     502.5179   1415.91064     780.1744     502.5179
   1415.89539     779.6260     501.9350   1415.89539     779.6260     501.9350
   1415.88013     779.0543     501.7199   1415.88013     779.0543     501.7199
   1415.86487     780.2368     501.1288   1415.86487     780.2368     501.1288
   1415.84961     777.9739     500.4353   1415.84961     777.9739     500.4353
   1415.83435     777.3719     501.2161   1415.83435     777.3719     501.2161
   1415.81909     776.9425     500.3343   1415.81909     776.9425     500.3343
   1415.80383     774.7686     499.8159   1415.80383     774.7686     499.8159
   1415.78857     775.2070     499.5974   1415.78857     775.2070     499.5974
   1415.77332     775.6613     498.5567   1415.77332     775.6613     498.5567
   1415.75806     774.0639     499.1160   1415.75806     774.0639     499.1160
   1415.74280     773.7742     497.5704   1415.74280     773.7742     497.5704
   1415.72754     772.4914     497.3303   1415.72754     772.4914     497.3303
   1415.71228     772.2239     497.7001   1415.71228     772.2239     497.7001
   1415.69702     771.1381     496.1715   1415.69702     771.1381     496.1715
   1415.68176     770.2546     496.2988   1415.68176     770.2546     496.2988
   1415.66650     768.2719     495.7041   1415.66650     768.2719     495.7041
   1415.65125     768.9270     495.1502   1415.65125     768.9270     495.1502
   1415.63599     766.8945     494.3815   1415.63599     766.8945     494.3815
   1415.62073     767.0665     494.4505   1415.62073     767.0665     494.4505
   1415.60547     766.2717     493.7586   1415.60547     766.2717     493.7586
   1415.59021     764.9708     493.1994   1415.59021     764.9708     493.1994
   1415.57495     763.6010     492.5571   1415.57495     763.6010     492.5571
   1415.55969     763.2379     492.0201   1415.55969     763.2379     492.0201
   1415.54443     762.0187     492.2896   1415.54443     762.0187     492.2896
   1415.52917     762.0095     491.5783   1415.52917     762.0095     491.5783
   1415.51392     761.1261     491.7001   1415.51392     761.1261     491.7001
   1415.49866     759.6704     490.4155   1415.49866     759.6704     490.4155
   1415.48340     758.8213     489.7775   1415.48340     758.8213     489.7775
   1415.46814     757.5138     489.4646   1415.46814     757.5138     489.4646
   1415.45288     756.0675     488.1813   1415.45288     756.0675     488.1813
   1415.43762     755.1844     488.0854   1415.43762     755.1844     488.0854
   1415.42236     755.1802     488.3603   1415.42236     755.1802     488.3603
   1415.40710     753.7142     486.5519   1415.40710     753.7142     486.5519
   1415.39185     752.2997     485.6899   1415.39185     752.2997     485.6899
   1415.37659     752.3785     486.5466   1415.37659     752.3785     486.5466
   1415.36133     750.3067     485.0332   1415.36133     750.3067     485.0332
   1415.34607     748.4680     484.7488   1415.34607     748.4680     484.7488
   1415.33081     747.5163     484.6251   1415.33081     747.5163     484.6251
   1415.31555     746.4929     483.6769   1415.31555     746.4929     483.6769
   1415.30029     745.5561     482.5521   1415.30029     745.5561     482.5521
   1415.28503     744.4223     481.9877   1415.28503     744.4223     481.9877
   1415.26978     743.4013     481.9416   1415.26978     743.4013     481.9416
   1415.25452     741.4130     480.7236   1415.25452     741.4130     480.7236
   1415.23926     740.9850     480.0285   1415.23926     740.9850     480.0285
   1415.22400     740.5248     479.2019   1415.22400     740.5248     479.2019
   1415.20874     738.8278     478.6378   1415.20874     738.8278     478.6378
   1415.19348     737.4247     478.0328   1415.19348     737.4247     478.0328
   1415.17822     735.6775     477.7782   1415.17822     735.6775     477.7782
   1415.16296     734.5627     477.1097   1415.16296     734.5627     477.1097
   1415.14771     733.0627     476.4274   1415.14771     733.0627     476.4274
   1415.13245     732.5185     475.0913   1415.13245     732.5185     475.0913
   1415.11719     729.6221     474.6428   1415.11719     729.6221     474.6428
   1415.10193     729.8922     474.2244   1415.10193     729.8922     474.2244
   1415.08667     727.6071     473.1456   1415.08667     727.6071     473.1456
   1415.07141     725.5009     472.1949   1415.07141     725.5009     472.1949
   1415.05615     723.3881     470.7909   1415.05615     723.3881     470.7909
   1415.04089     722.1797     470.2493   1415.04089     722.1797     470.2493
   1415.02563     721.1241     470.4236   1415.02563     721.1241     470.4236
   1415.01038     719.5929     469.6304   1415.01038     719.5929     469.6304
   1414.99512     718.4481     468.2128   1414.99512     718.4481     468.2128
   1414.97986     716.5065     466.7509   1414.97986     716.5065     466.7509
   1414.96460     714.6517     466.5773   1414.96460     714.6517     466.5773
   1414.94934     712.4473     465.4347   1414.94934     712.4473     465.4347
   1414.93408     710.7397     464.6361   1414.93408     710.7397     464.6361
   1414.91882     709.8630     463.4097   1414.91882     709.8630     463.4097
   1414.90356     706.7591     462.8799   1414.90356     706.7591     462.8799
   1414.88831     706.5110     461.7833   1414.88831     706.5110     461.7833
   1414.87305     704.8303     460.5470   1414.87305     704.8303     460.5470
   1414.85779     704.6515     460.0829   1414.85779     704.6515     460.0829
   1414.84253     701.3444     459.7030   1414.84253     701.3444     459.7030
   1414.82727     699.4751     458.5062   1414.82727     699.4751     458.5062
   1414.81201     696.7249     457.2060   1414.81201     696.7249     457.2060
   1414.79675     696.1088     455.9451   1414.79675     696.1088     455.9451
   1414.78149     693.4747     454.8411   1414.78149     693.4747     454.8411
   1414.76624     692.8623     454.4658   1414.76624     692.8623     454.4658
   1414.75098     690.1434     453.4401   1414.75098     690.1434     453.4401
   1414.73572     687.6989     452.1263   1414.73572     687.6989     452.1263
   1414.72046     687.5217     451.0704   1414.72046     687.5217     451.0704
   1414.70520     684.2076     449.3404   1414.70520     684.2076     449.3404
   1414.68994     682.0501     448.3564   1414.68994     682.0501     448.3564
   1414.67468     680.4570     447.5845   1414.67468     680.4570     447.5845
   1414.65942     678.3701     446.8797   1414.65942     678.3701     446.8797
   1414.64417     675.7597     446.5242   1414.64417     675.7597     446.5242
   1414.62891     675.2576     444.1643   1414.62891     675.2576     444.1643
   1414.61365     672.5650     443.0993   1414.61365     672.5650     443.0993
   1414.59839     670.8510     441.7224   1414.59839     670.8510     441.7224
   1414.58313     668.1225     440.3364   1414.58313     668.1225     440.3364
   1414.56787     664.9105     439.9944   1414.56787     664.9105     439.9944
   1414.55261     662.8416     438.2063   1414.55261     662.8416     438.2063
   1414.53735     661.1162     437.2384   1414.53735     661.1162     437.2384
   1414.52209     659.9213     435.7307   1414.52209     659.9213     435.7307
   1414.50684     656.6521     434.8591   1414.50684     656.6521     434.8591
   1414.49158     654.4034     433.7679   1414.49158     654.4034     433.7679
   1414.47632     652.8268     431.7412   1414.47632     652.8268     431.7412
   1414.46106     650.3552     430.4936   1414.46106     650.3552     430.4936
   1414.44580     649.3057     428.8322   1414.44580     649.3057     428.8322
   1414.43054     645.4188     428.0643   1414.43054     645.4188     428.0643
   1414.41528     644.0381     426.5107   1414.41528     644.0381     426.5107
   1414.40002     641.6426     425.0076   1414.40002     641.6426     425.0076
   1414.38477     637.5192     423.9114   1414.38477     637.5192     423.9114
   1414.36951     636.2535     423.1367   1414.36951     636.2535     423.1367
   1414.35425     633.7883     421.7036   1414.35425     633.7883     421.7036
   1414.33899     631.6729     420.0437   1414.33899     631.6729     420.0437
   1414.32373     629.3879     418.9847   1414.32373     629.3879     418.9847
   1414.30847     626.6846     417.1158   1414.30847     626.6846     417.1158
   1414.29321     624.3632     415.3573   1414.29321     624.3632     415.3573
   1414.27795     622.3410     414.8482   1414.27795     622.3410     414.8482
   1414.26270     618.4742     412.8676   1414.26270     618.4742     412.8676
   1414.24744     616.0471     411.4941   1414.24744     616.0471     411.4941
   1414.23218     614.6637     409.3359   1414.23218     614.6637     409.3359
   1414.21692     611.0764     408.7535   1414.21692     611.0764     408.7535
   1414.20166     609.4171     407.0471   1414.20166     609.4171     407.0471
   1414.18640     605.1643     405.5469   1414.18640     605.1643     405.5469
   1414.17114     603.2557     403.7812   1414.17114     603.2557     403.7812
   1414.15588     600.2911     402.3879   1414.15588     600.2911     402.3879
   1414.14062     598.0179     400.7529   1414.14062     598.0179     400.7529
   1414.12537     595.2201     399.4258   1414.12537     595.2201     399.4258
   1414.11011     592.1682     397.7953   1414.11011     592.1682     397.7953
   1414.09485     589.7809     396.6458   1414.09485     589.7809     396.6458
   1414.07959     587.7162     394.7642   1414.07959     587.7162     394.7642
   1414.06433     583.5394     393.6578   1414.06433     583.5394     393.6578
   1414.04907     581.0240     391.5731   1414.04907     581.0240     391.5731
   1414.03381     579.2708     390.2403   1414.03381     579.2708     390.2403
   1414.01855     576.6204     389.4313   1414.01855     576.6204     389.4313
   1414.00330     600.1710     393.7714   1414.00330     600.1710     393.7714
   1413.98804     571.9079     386.4758   1413.98804     571.9079     386.4758
   1413.97278     568.1547     383.8549   1413.97278     568.1547     383.8549
   1413.95752     564.8016     381.9071   1413.95752     564.8016     381.9071
   1413.94226     562.4899     380.3287   1413.94226     562.4899     380.3287
   1413.92700     560.1782     378.2491   1413.92700     560.1782     378.2491
   1413.91174     555.8097     376.6836   1413.91174     555.8097     376.6836
   1413.89648     552.9111     376.1324   1413.89648     552.9111     376.1324
   1413.88123     550.3881     372.9514   1413.88123     550.3881     372.9514
   1413.86597     547.9995     371.5582   1413.86597     547.9995     371.5582
   1413.85071     544.7587     371.0229   1413.85071     544.7587     371.0229
   1413.83545     541.8920     368.8158   1413.83545     541.8920     368.8158
   1413.82019     540.0390     367.0917   1413.82019     540.0390     367.0917
   1413.80493     536.1874     365.9237   1413.80493     536.1874     365.9237
   1413.78967     533.0496     364.1906   1413.78967     533.0496     364.1906
   1413.77441     530.6661     362.0953   1413.77441     530.6661     362.0953
   1413.75916     527.8768     360.2594   1413.75916     527.8768     360.2594
   1413.74390     524.3126     358.6377   1413.74390     524.3126     358.6377
   1413.72864     521.4213     356.4713   1413.72864     521.4213     356.4713
   1413.71338     518.8535     355.4807   1413.71338     518.8535     355.4807
   1413.69812     515.4453     353.8065   1413.69812     515.4453     353.8065
   1413.68286     513.8802     351.9767   1413.68286     513.8802     351.9767
   1413.66760     510.9677     350.3134   1413.66760     510.9677     350.3134
   1413.65234     507.0817     348.5023   1413.65234     507.0817     348.5023
   1413.63708     505.0915     347.3750   1413.63708     505.0915     347.3750
   1413.62183     501.5372     345.4550   1413.62183     501.5372     345.4550
   1413.60657     498.3823     343.6756   1413.60657     498.3823     343.6756
   1413.59131     496.1308     341.6170   1413.59131     496.1308     341.6170
   1413.57605     493.3694     339.8102   1413.57605     493.3694     339.8102
   1413.56079     490.3971     338.2173   1413.56079     490.3971     338.2173
   1413.54553     487.4816     337.2009   1413.54553     487.4816     337.2009
   1413.53027     484.3983     334.8924   1413.53027     484.3983     334.8924
   1413.51501     481.8293     333.2620   1413.51501     481.8293     333.2620
   1413.49976     479.0616     331.7373   1413.49976     479.0616     331.7373
   1413.48450     476.2583     329.6880   1413.48450     476.2583     329.6880
   1413.46924     472.7769     328.6382   1413.46924     472.7769     328.6382
   1413.45398     471.1082     327.1616   1413.45398     471.1082     327.1616
   1413.43872     468.9603     325.0957   1413.43872     468.9603     325.0957
   1413.42346     464.7961     323.9550   1413.42346     464.7961     323.9550
   1413.40820     462.6807     322.1779   1413.40820     462.6807     322.1779
   1413.39294     459.3854     320.6638   1413.39294     459.3854     320.6638
   1413.37769     457.3800     319.2291   1413.37769     457.3800     319.2291
   1413.36243     453.6430     317.1581   1413.36243     453.6430     317.1581
   1413.34717     451.0574     316.2113   1413.34717     451.0574     316.2113
   1413.33191     448.9997     313.8839   1413.33191     448.9997     313.8839
   1413.31665     445.7952     312.3977   1413.31665     445.7952     312.3977
   1413.30139     444.5539     310.6814   1413.30139     444.5539     310.6814
   1413.28613     440.3079     309.5925   1413.28613     440.3079     309.5925
   1413.27087     439.2798     307.6234   1413.27087     439.2798     307.6234
   1413.25562     436.1852     306.6652   1413.25562     436.1852     306.6652
   1413.24036     433.3024     305.0449   1413.24036     433.3024     305.0449
   1413.22510     431.6928     303.3684   1413.22510     431.6928     303.3684
   1413.20984     428.4613     302.2862   1413.20984     428.4613     302.2862
   1413.19458     426.1511     300.7065   1413.19458     426.1511     300.7065
   1413.17932     423.4634     298.8363   1413.17932     423.4634     298.8363
   1413.16406     420.8881     297.3281   1413.16406     420.8881     297.3281
   1413.14880     418.7935     296.0477   1413.14880     418.7935     296.0477
   1413.13354     416.1790     294.3383   1413.13354     416.1790     294.3383
   1413.11829     414.8167     293.4841   1413.11829     414.8167     293.4841
   1413.10303     412.1596     291.8230   1413.10303     412.1596     291.8230
   1413.08777     409.8136     291.0825   1413.08777     409.8136     291.0825
   1413.07251     408.0732     289.2826   1413.07251     408.0732     289.2826
   1413.05725     405.6203     288.2122   1413.05725     405.6203     288.2122
   1413.04199     403.5930     286.7871   1413.04199     403.5930     286.7871
   1413.02673     401.4389     285.7256   1413.02673     401.4389     285.7256
   1413.01147     399.6904     284.2498   1413.01147     399.6904     284.2498
   1412.99622     397.2442     282.7920   1412.99622     397.2442     282.7920
   1412.98096     395.6090     282.0630   1412.98096     395.6090     282.0630
   1412.96570     393.6990     280.5273   1412.96570     393.6990     280.5273
   1412.95044     392.0208     279.9090   1412.95044     392.0208     279.9090
   1412.93518     389.7794     278.7407   1412.93518     389.7794     278.7407
   1412.91992     388.3454     277.9521   1412.91992     388.3454     277.9521
   1412.90466     386.6963     276.5276   1412.90466     386.6963     276.5276
   1412.88940     384.3618     275.4424   1412.88940     384.3618     275.4424
   1412.87415     382.3313     274.5829   1412.87415     382.3313     274.5829
   1412.85889     381.0812     273.3533   1412.85889     381.0812     273.3533
   1412.84363     379.6217     272.3705   1412.84363     379.6217     272.3705
   1412.82837     377.5054     271.3371   1412.82837     377.5054     271.3371
   1412.81311     376.5084     270.8294   1412.81311     376.5084     270.8294
   1412.79785     374.6491     269.4839   1412.79785     374.6491     269.4839
   1412.78259     373.7716     268.5693   1412.78259     373.7716     268.5693
   1412.76733     372.1767     267.9403   1412.76733     372.1767     267.9403
   1412.75208     370.5021     267.3396   1412.75208     370.5021     267.3396
   1412.73682     369.0602     266.6377   1412.73682     369.0602     266.6377
   1412.72156     368.2716     265.5552   1412.72156     368.2716     265.5552
   1412.70630     367.0475     265.3112   1412.70630     367.0475     265.3112
   1412.69104     366.8276     264.2406   1412.69104     366.8276     264.2406
   1412.67578     364.7489     263.8640   1412.67578     364.7489     263.8640
   1412.66052     364.0347     263.2833   1412.66052     364.0347     263.2833
   1412.64526     362.6211     262.7946   1412.64526     362.6211     262.7946
   1412.63000     362.0414     262.2640   1412.63000     362.0414     262.2640
   1412.61475     360.2878     261.3414   1412.61475     360.2878     261.3414
   1412.59949     359.7308     260.8145   1412.59949     359.7308     260.8145
   1412.58423     359.8232     260.6369   1412.58423     359.8232     260.6369
   1412.56897     358.5951     260.0399   1412.56897     358.5951     260.0399
   1412.55371     357.4831     259.8225   1412.55371     357.4831     259.8225
   1412.53845     357.1678     259.8759   1412.53845     357.1678     259.8759
   1412.52319     357.6470     259.1048   1412.52319     357.6470     259.1048
   1412.50793     356.5743     259.3099   1412.50793     356.5743     259.3099
   1412.49268     356.0751     258.8463   1412.49268     356.0751     258.8463
   1412.47742     355.3222     258.7686   1412.47742     355.3222     258.7686
   1412.46216     354.5044     258.3102   1412.46216     354.5044     258.3102
   1412.44690     354.4669     258.4762   1412.44690     354.4669     258.4762
   1412.43164     354.3561     258.0095   1412.43164     354.3561     258.0095
   1412.41638     353.6545     258.3960   1412.41638     353.6545     258.3960
   1412.40112     353.8130     258.3943   1412.40112     353.8130     258.3943
   1412.38586     354.0105     258.3730   1412.38586     354.0105     258.3730
   1412.37061     353.9779     258.5035   1412.37061     353.9779     258.5035
   1412.35535     354.0073     259.2250   1412.35535     354.0073     259.2250
   1412.34009     353.8677     258.7322   1412.34009     353.8677     258.7322
   1412.32483     353.9084     259.0504   1412.32483     353.9084     259.0504
   1412.30957     353.8878     259.1351   1412.30957     353.8878     259.1351
   1412.29431     354.7197     258.9080   1412.29431     354.7197     258.9080
   1412.27905     354.2245     259.6471   1412.27905     354.2245     259.6471
   1412.26379     354.7017     259.7200   1412.26379     354.7017     259.7200
   1412.24854     355.2367     260.1423   1412.24854     355.2367     260.1423
   1412.23328     355.7094     260.4162   1412.23328     355.7094     260.4162
   1412.21802     355.8065     261.1266   1412.21802     355.8065     261.1266
   1412.20276     357.0963     261.6246   1412.20276     357.0963     261.6246