#     FILENAME=!Skynet_57528_lach-hhg-124_20414_20948.cyb.fits
#     BASENAME=Skynet_57528_lach-hhg-124_20414_20948
#     SRC_NAME=lach-hhg-124
#     OBSERVER=hhgmadison16_9500
#     DATE_OBS=2016-05-20T16:45:38.620
#        OBSID=20414
#      SCANNUM=20948
#          MJD=57528.6994
#          UTC=60427
#     SCANTYPE=track
#     DATAMODE=HIRES
#     TUNEFREQ=1420.0000
# Actual_FREQ1=1420.0000
# Actual_FREQ2=1420.0000
#    LO1Tuning=6870.000
#     RFFILTER=1355_1435
#        OBSBW=-15.6250
#        NCHAN=1024 
#        FOCUS=37.0709
#           RA=01:00:52.28
#          DEC=62:51:08.56
#      RA(hrs)=1.014500
#     DEC(deg)=62.852400
#    AZIM(deg)=330.274
#    ELEV(deg)=57.665
#     IFattens=10.00, 10.00
#      WARNING=None
#    TCAL_XL1=7.9635
#    TCAL_YR1=9.1340
#    TCAL_XL2=7.9635
#    TCAL_YR2=9.1340
#     TRX_XL1=11.7060
#     TRX_YR1=11.7060
#     TRX_XL2=11.7060
#     TRX_YR2=11.7060
#        TAVE=1.0000
#Freq1(MHz)          XL1          YR1  Freq2(MHz)          XL2          YR2 

   1427.81250     294.7708     280.5663   1427.81250     294.7708     280.5663
   1427.79724     295.4263     281.1466   1427.79724     295.4263     281.1466
   1427.78198     296.3529     281.3863   1427.78198     296.3529     281.3863
   1427.76672     296.6794     282.7707   1427.76672     296.6794     282.7707
   1427.75146     297.4620     283.7433   1427.75146     297.4620     283.7433
   1427.73621     297.7264     284.8166   1427.73621     297.7264     284.8166
   1427.72095     298.9549     285.8187   1427.72095     298.9549     285.8187
   1427.70569     299.3964     286.6852   1427.70569     299.3964     286.6852
   1427.69043     300.4078     287.9897   1427.69043     300.4078     287.9897
   1427.67517     301.4214     288.7817   1427.67517     301.4214     288.7817
   1427.65991     302.3765     289.8615   1427.65991     302.3765     289.8615
   1427.64465     302.8149     290.8181   1427.64465     302.8149     290.8181
   1427.62939     304.3353     292.7967   1427.62939     304.3353     292.7967
   1427.61414     305.3385     294.1064   1427.61414     305.3385     294.1064
   1427.59888     305.7040     294.9214   1427.59888     305.7040     294.9214
   1427.58362     307.2465     296.4997   1427.58362     307.2465     296.4997
   1427.56836     308.4811     297.9277   1427.56836     308.4811     297.9277
   1427.55310     309.5663     298.8943   1427.55310     309.5663     298.8943
   1427.53784     310.5288     300.4044   1427.53784     310.5288     300.4044
   1427.52258     312.5669     302.7054   1427.52258     312.5669     302.7054
   1427.50732     313.6379     304.2429   1427.50732     313.6379     304.2429
   1427.49207     314.9268     305.1753   1427.49207     314.9268     305.1753
   1427.47681     316.0664     306.8648   1427.47681     316.0664     306.8648
   1427.46155     317.9938     308.8517   1427.46155     317.9938     308.8517
   1427.44629     318.7611     310.4122   1427.44629     318.7611     310.4122
   1427.43103     320.2959     312.0867   1427.43103     320.2959     312.0867
   1427.41577     322.2152     313.8240   1427.41577     322.2152     313.8240
   1427.40051     324.1498     315.9333   1427.40051     324.1498     315.9333
   1427.38525     325.6872     317.3063   1427.38525     325.6872     317.3063
   1427.37000     326.4737     319.4512   1427.37000     326.4737     319.4512
   1427.35474     329.1762     320.9812   1427.35474     329.1762     320.9812
   1427.33948     330.4427     322.9102   1427.33948     330.4427     322.9102
   1427.32422     332.1191     324.6805   1427.32422     332.1191     324.6805
   1427.30896     333.7200     326.5739   1427.30896     333.7200     326.5739
   1427.29370     336.2646     329.4234   1427.29370     336.2646     329.4234
   1427.27844     337.2117     331.4490   1427.27844     337.2117     331.4490
   1427.26318     339.4463     333.0354   1427.26318     339.4463     333.0354
   1427.24792     341.2615     335.6743   1427.24792     341.2615     335.6743
   1427.23267     343.1100     336.5081   1427.23267     343.1100     336.5081
   1427.21741     344.9417     338.6466   1427.21741     344.9417     338.6466
   1427.20215     347.4154     341.6124   1427.20215     347.4154     341.6124
   1427.18689     349.3305     343.1573   1427.18689     349.3305     343.1573
   1427.17163     351.0422     345.8251   1427.17163     351.0422     345.8251
   1427.15637     352.4591     347.6577   1427.15637     352.4591     347.6577
   1427.14111     355.8231     350.0621   1427.14111     355.8231     350.0621
   1427.12585     357.4327     352.1847   1427.12585     357.4327     352.1847
   1427.11060     359.2794     354.3729   1427.11060     359.2794     354.3729
   1427.09534     361.8245     356.4702   1427.09534     361.8245     356.4702
   1427.08008     363.7564     359.4628   1427.08008     363.7564     359.4628
   1427.06482     366.0512     361.7851   1427.06482     366.0512     361.7851
   1427.04956     367.9285     363.1676   1427.04956     367.9285     363.1676
   1427.03430     370.4777     366.3295   1427.03430     370.4777     366.3295
   1427.01904     371.8659     368.4439   1427.01904     371.8659     368.4439
   1427.00378     375.0463     371.6259   1427.00378     375.0463     371.6259
   1426.98853     376.8794     373.2710   1426.98853     376.8794     373.2710
   1426.97327     379.3965     375.7082   1426.97327     379.3965     375.7082
   1426.95801     382.0867     378.6184   1426.95801     382.0867     378.6184
   1426.94275     384.0233     380.1491   1426.94275     384.0233     380.1491
   1426.92749     386.4408     383.4610   1426.92749     386.4408     383.4610
   1426.91223     389.2463     386.1083   1426.91223     389.2463     386.1083
   1426.89697     391.2990     387.4850   1426.89697     391.2990     387.4850
   1426.88171     393.4662     390.8556   1426.88171     393.4662     390.8556
   1426.86646     396.0421     392.6099   1426.86646     396.0421     392.6099
   1426.85120     398.3286     395.7042   1426.85120     398.3286     395.7042
   1426.83594     401.3690     398.2241   1426.83594     401.3690     398.2241
   1426.82068     402.6519     400.8230   1426.82068     402.6519     400.8230
   1426.80542     405.1672     403.1127   1426.80542     405.1672     403.1127
   1426.79016     407.7422     405.5613   1426.79016     407.7422     405.5613
   1426.77490     410.0458     408.2565   1426.77490     410.0458     408.2565
   1426.75964     413.1308     410.8047   1426.75964     413.1308     410.8047
   1426.74438     415.3572     413.8258   1426.74438     415.3572     413.8258
   1426.72913     418.0669     415.4494   1426.72913     418.0669     415.4494
   1426.71387     421.0631     418.2621   1426.71387     421.0631     418.2621
   1426.69861     423.0034     421.0284   1426.69861     423.0034     421.0284
   1426.68335     425.2315     423.3346   1426.68335     425.2315     423.3346
   1426.66809     427.6985     426.1254   1426.66809     427.6985     426.1254
   1426.65283     430.1185     427.8293   1426.65283     430.1185     427.8293
   1426.63757     432.8458     430.9692   1426.63757     432.8458     430.9692
   1426.62231     436.2187     434.8071   1426.62231     436.2187     434.8071
   1426.60706     437.7895     437.2143   1426.60706     437.7895     437.2143
   1426.59180     440.0737     438.6404   1426.59180     440.0737     438.6404
   1426.57654     443.1889     441.3469   1426.57654     443.1889     441.3469
   1426.56128     445.0636     443.6761   1426.56128     445.0636     443.6761
   1426.54602     447.2563     446.1807   1426.54602     447.2563     446.1807
   1426.53076     449.9291     448.2116   1426.53076     449.9291     448.2116
   1426.51550     452.3169     450.9461   1426.51550     452.3169     450.9461
   1426.50024     454.3565     453.7386   1426.50024     454.3565     453.7386
   1426.48499     457.5063     456.0915   1426.48499     457.5063     456.0915
   1426.46973     459.3239     458.9959   1426.46973     459.3239     458.9959
   1426.45447     462.1800     460.9403   1426.45447     462.1800     460.9403
   1426.43921     463.5142     463.6180   1426.43921     463.5142     463.6180
   1426.42395     467.2680     466.5049   1426.42395     467.2680     466.5049
   1426.40869     468.6619     468.5541   1426.40869     468.6619     468.5541
   1426.39343     471.4012     470.1346   1426.39343     471.4012     470.1346
   1426.37817     473.1999     472.8300   1426.37817     473.1999     472.8300
   1426.36292     475.7239     475.7811   1426.36292     475.7239     475.7811
   1426.34766     478.7346     478.3802   1426.34766     478.7346     478.3802
   1426.33240     480.8642     480.7424   1426.33240     480.8642     480.7424
   1426.31714     483.5822     483.0480   1426.31714     483.5822     483.0480
   1426.30188     485.2157     485.0977   1426.30188     485.2157     485.0977
   1426.28662     487.4782     487.7776   1426.28662     487.4782     487.7776
   1426.27136     489.6708     490.0176   1426.27136     489.6708     490.0176
   1426.25610     492.7625     492.0744   1426.25610     492.7625     492.0744
   1426.24084     494.4950     494.5626   1426.24084     494.4950     494.5626
   1426.22559     496.5995     497.0006   1426.22559     496.5995     497.0006
   1426.21033     499.1660     499.0286   1426.21033     499.1660     499.0286
   1426.19507     500.6799     500.2039   1426.19507     500.6799     500.2039
   1426.17981     502.6485     503.5359   1426.17981     502.6485     503.5359
   1426.16455     505.8794     505.3515   1426.16455     505.8794     505.3515
   1426.14929     506.9994     507.9256   1426.14929     506.9994     507.9256
   1426.13403     509.1441     509.8130   1426.13403     509.1441     509.8130
   1426.11877     511.7595     513.0140   1426.11877     511.7595     513.0140
   1426.10352     513.7495     513.0882   1426.10352     513.7495     513.0882
   1426.08826     516.0475     515.8582   1426.08826     516.0475     515.8582
   1426.07300     518.4247     518.5100   1426.07300     518.4247     518.5100
   1426.05774     519.1964     520.1649   1426.05774     519.1964     520.1649
   1426.04248     521.3744     522.2146   1426.04248     521.3744     522.2146
   1426.02722     523.4310     524.3732   1426.02722     523.4310     524.3732
   1426.01196     525.1913     527.0232   1426.01196     525.1913     527.0232
   1425.99670     526.8240     529.2009   1425.99670     526.8240     529.2009
   1425.98145     530.2905     529.6990   1425.98145     530.2905     529.6990
   1425.96619     531.4547     532.5917   1425.96619     531.4547     532.5917
   1425.95093     532.5872     534.3608   1425.95093     532.5872     534.3608
   1425.93567     534.6184     535.9640   1425.93567     534.6184     535.9640
   1425.92041     536.3615     537.9128   1425.92041     536.3615     537.9128
   1425.90515     538.9157     540.4788   1425.90515     538.9157     540.4788
   1425.88989     539.9615     541.8485   1425.88989     539.9615     541.8485
   1425.87463     541.7140     544.6269   1425.87463     541.7140     544.6269
   1425.85938     543.3981     545.8990   1425.85938     543.3981     545.8990
   1425.84412     544.7167     547.1923   1425.84412     544.7167     547.1923
   1425.82886     547.0468     548.4551   1425.82886     547.0468     548.4551
   1425.81360     548.8356     551.3223   1425.81360     548.8356     551.3223
   1425.79834     550.8837     552.8593   1425.79834     550.8837     552.8593
   1425.78308     551.4240     554.4543   1425.78308     551.4240     554.4543
   1425.76782     553.5137     556.8653   1425.76782     553.5137     556.8653
   1425.75256     554.9116     557.5071   1425.75256     554.9116     557.5071
   1425.73730     557.0172     558.8516   1425.73730     557.0172     558.8516
   1425.72205     557.5806     559.9567   1425.72205     557.5806     559.9567
   1425.70679     559.1476     562.3964   1425.70679     559.1476     562.3964
   1425.69153     560.6724     564.0492   1425.69153     560.6724     564.0492
   1425.67627     562.0752     566.1879   1425.67627     562.0752     566.1879
   1425.66101     561.6774     567.2711   1425.66101     561.6774     567.2711
   1425.64575     564.7944     568.3721   1425.64575     564.7944     568.3721
   1425.63049     566.2244     570.8181   1425.63049     566.2244     570.8181
   1425.61523     567.0501     572.0907   1425.61523     567.0501     572.0907
   1425.59998     568.0385     574.1540   1425.59998     568.0385     574.1540
   1425.58472     569.4398     574.5952   1425.58472     569.4398     574.5952
   1425.56946     570.5107     577.3506   1425.56946     570.5107     577.3506
   1425.55420     572.1481     578.7523   1425.55420     572.1481     578.7523
   1425.53894     573.8090     579.5178   1425.53894     573.8090     579.5178
   1425.52368     575.2758     581.6311   1425.52368     575.2758     581.6311
   1425.50842     575.3356     583.4720   1425.50842     575.3356     583.4720
   1425.49316     576.3135     584.4538   1425.49316     576.3135     584.4538
   1425.47791     577.1891     584.5085   1425.47791     577.1891     584.5085
   1425.46265     578.3575     586.2236   1425.46265     578.3575     586.2236
   1425.44739     580.2559     588.3853   1425.44739     580.2559     588.3853
   1425.43213     580.7780     589.3085   1425.43213     580.7780     589.3085
   1425.41687     581.5258     591.3011   1425.41687     581.5258     591.3011
   1425.40161     582.7640     591.1420   1425.40161     582.7640     591.1420
   1425.38635     582.6852     592.8736   1425.38635     582.6852     592.8736
   1425.37109     584.1797     594.7601   1425.37109     584.1797     594.7601
   1425.35583     584.6694     595.3571   1425.35583     584.6694     595.3571
   1425.34058     587.3685     596.2689   1425.34058     587.3685     596.2689
   1425.32532     588.0603     597.1826   1425.32532     588.0603     597.1826
   1425.31006     587.5840     598.8171   1425.31006     587.5840     598.8171
   1425.29480     589.1622     598.6045   1425.29480     589.1622     598.6045
   1425.27954     589.1700     600.3494   1425.27954     589.1700     600.3494
   1425.26428     590.2241     602.2636   1425.26428     590.2241     602.2636
   1425.24902     590.8727     602.5672   1425.24902     590.8727     602.5672
   1425.23376     590.8350     604.7524   1425.23376     590.8350     604.7524
   1425.21851     592.0016     604.3165   1425.21851     592.0016     604.3165
   1425.20325     592.5427     606.2870   1425.20325     592.5427     606.2870
   1425.18799     592.7429     606.6761   1425.18799     592.7429     606.6761
   1425.17273     593.2726     607.0467   1425.17273     593.2726     607.0467
   1425.15747     594.2465     608.7460   1425.15747     594.2465     608.7460
   1425.14221     593.9125     609.7417   1425.14221     593.9125     609.7417
   1425.12695     595.2067     611.6735   1425.12695     595.2067     611.6735
   1425.11169     596.0317     612.0603   1425.11169     596.0317     612.0603
   1425.09644     596.4021     612.6326   1425.09644     596.4021     612.6326
   1425.08118     596.8685     613.1682   1425.08118     596.8685     613.1682
   1425.06592     597.2670     614.4409   1425.06592     597.2670     614.4409
   1425.05066     598.4800     615.6830   1425.05066     598.4800     615.6830
   1425.03540     598.8049     615.9413   1425.03540     598.8049     615.9413
   1425.02014     598.2844     616.8602   1425.02014     598.2844     616.8602
   1425.00488     599.2959     617.6097   1425.00488     599.2959     617.6097
   1424.98962     599.6892     618.7428   1424.98962     599.6892     618.7428
   1424.97437     599.3282     619.6353   1424.97437     599.3282     619.6353
   1424.95911     600.5649     620.6023   1424.95911     600.5649     620.6023
   1424.94385     599.6313     621.5163   1424.94385     599.6313     621.5163
   1424.92859     601.0486     621.6306   1424.92859     601.0486     621.6306
   1424.91333     601.1643     621.2616   1424.91333     601.1643     621.2616
   1424.89807     600.8933     622.2319   1424.89807     600.8933     622.2319
   1424.88281     601.4336     623.4937   1424.88281     601.4336     623.4937
   1424.86755     601.3305     624.2938   1424.86755     601.3305     624.2938
   1424.85229     601.8091     624.1225   1424.85229     601.8091     624.1225
   1424.83704     601.8739     625.0070   1424.83704     601.8739     625.0070
   1424.82178     601.7026     625.5964   1424.82178     601.7026     625.5964
   1424.80652     602.5507     626.3051   1424.80652     602.5507     626.3051
   1424.79126     602.4935     627.1088   1424.79126     602.4935     627.1088
   1424.77600     602.7311     626.8792   1424.77600     602.7311     626.8792
   1424.76074     602.1990     627.7419   1424.76074     602.1990     627.7419
   1424.74548     601.6708     629.0062   1424.74548     601.6708     629.0062
   1424.73022     602.5341     629.7706   1424.73022     602.5341     629.7706
   1424.71497     603.4003     629.6909   1424.71497     603.4003     629.6909
   1424.69971     602.1514     629.4064   1424.69971     602.1514     629.4064
   1424.68445     602.4249     630.0555   1424.68445     602.4249     630.0555
   1424.66919     602.6503     631.2280   1424.66919     602.6503     631.2280
   1424.65393     602.0668     631.2698   1424.65393     602.0668     631.2698
   1424.63867     601.5175     632.1774   1424.63867     601.5175     632.1774
   1424.62341     602.7407     632.4107   1424.62341     602.7407     632.4107
   1424.60815     601.4225     632.4113   1424.60815     601.4225     632.4113
   1424.59290     602.6433     632.5460   1424.59290     602.6433     632.5460
   1424.57764     601.8776     632.1907   1424.57764     601.8776     632.1907
   1424.56238     601.4224     633.5143   1424.56238     601.4224     633.5143
   1424.54712     601.5812     633.3583   1424.54712     601.5812     633.3583
   1424.53186     601.9630     635.1090   1424.53186     601.9630     635.1090
   1424.51660     601.7479     634.8792   1424.51660     601.7479     634.8792
   1424.50134     602.1478     634.3041   1424.50134     602.1478     634.3041
   1424.48608     601.7881     634.4761   1424.48608     601.7881     634.4761
   1424.47083     601.0037     634.5546   1424.47083     601.0037     634.5546
   1424.45557     601.1331     634.8365   1424.45557     601.1331     634.8365
   1424.44031     600.5892     635.0566   1424.44031     600.5892     635.0566
   1424.42505     600.6064     636.3348   1424.42505     600.6064     636.3348
   1424.40979     600.5873     635.8167   1424.40979     600.5873     635.8167
   1424.39453     601.0907     636.6531   1424.39453     601.0907     636.6531
   1424.37927     600.8688     636.7047   1424.37927     600.8688     636.7047
   1424.36401     600.2711     636.5486   1424.36401     600.2711     636.5486
   1424.34875     600.2645     637.2100   1424.34875     600.2645     637.2100
   1424.33350     599.9404     637.8943   1424.33350     599.9404     637.8943
   1424.31824     599.7314     637.8459   1424.31824     599.7314     637.8459
   1424.30298     599.5616     637.3987   1424.30298     599.5616     637.3987
   1424.28772     600.0798     638.0443   1424.28772     600.0798     638.0443
   1424.27246     598.3129     636.7122   1424.27246     598.3129     636.7122
   1424.25720     599.4042     639.0502   1424.25720     599.4042     639.0502
   1424.24194     598.7404     637.1049   1424.24194     598.7404     637.1049
   1424.22668     598.8660     638.9720   1424.22668     598.8660     638.9720
   1424.21143     598.0579     636.9110   1424.21143     598.0579     636.9110
   1424.19617     598.5506     638.0786   1424.19617     598.5506     638.0786
   1424.18091     596.8777     637.5101   1424.18091     596.8777     637.5101
   1424.16565     597.5037     638.3873   1424.16565     597.5037     638.3873
   1424.15039     596.9996     637.9600   1424.15039     596.9996     637.9600
   1424.13513     597.4001     637.8373   1424.13513     597.4001     637.8373
   1424.11987     596.5476     638.0463   1424.11987     596.5476     638.0463
   1424.10461     596.4642     638.3500   1424.10461     596.4642     638.3500
   1424.08936     595.8854     638.6536   1424.08936     595.8854     638.6536
   1424.07410     596.0827     637.6052   1424.07410     596.0827     637.6052
   1424.05884     595.0892     637.9900   1424.05884     595.0892     637.9900
   1424.04358     595.5255     638.9670   1424.04358     595.5255     638.9670
   1424.02832     595.1769     637.4190   1424.02832     595.1769     637.4190
   1424.01306     595.0065     637.6881   1424.01306     595.0065     637.6881
   1423.99780     594.8259     637.2357   1423.99780     594.8259     637.2357
   1423.98254     594.5297     637.1887   1423.98254     594.5297     637.1887
   1423.96729     593.7236     637.3802   1423.96729     593.7236     637.3802
   1423.95203     593.0497     637.5566   1423.95203     593.0497     637.5566
   1423.93677     592.9938     637.8515   1423.93677     592.9938     637.8515
   1423.92151     592.9263     637.8701   1423.92151     592.9263     637.8701
   1423.90625     592.7178     636.6797   1423.90625     592.7178     636.6797
   1423.89099     592.5811     638.3325   1423.89099     592.5811     638.3325
   1423.87573     591.7073     636.9116   1423.87573     591.7073     636.9116
   1423.86047     592.0236     636.9325   1423.86047     592.0236     636.9325
   1423.84521     591.3733     636.1488   1423.84521     591.3733     636.1488
   1423.82996     590.3636     635.5770   1423.82996     590.3636     635.5770
   1423.81470     590.5518     636.5585   1423.81470     590.5518     636.5585
   1423.79944     590.7706     635.6105   1423.79944     590.7706     635.6105
   1423.78418     591.3602     635.4302   1423.78418     591.3602     635.4302
   1423.76892     589.6531     633.8643   1423.76892     589.6531     633.8643
   1423.75366     589.7777     634.2822   1423.75366     589.7777     634.2822
   1423.73840     588.4261     634.6769   1423.73840     588.4261     634.6769
   1423.72314     588.8873     634.6370   1423.72314     588.8873     634.6370
   1423.70789     588.6637     635.0689   1423.70789     588.6637     635.0689
   1423.69263     586.8728     634.5762   1423.69263     586.8728     634.5762
   1423.67737     587.6700     634.1041   1423.67737     587.6700     634.1041
   1423.66211     587.5807     633.7881   1423.66211     587.5807     633.7881
   1423.64685     587.2617     632.3652   1423.64685     587.2617     632.3652
   1423.63159     586.7693     631.7739   1423.63159     586.7693     631.7739
   1423.61633     586.6360     632.6345   1423.61633     586.6360     632.6345
   1423.60107     586.1772     631.8459   1423.60107     586.1772     631.8459
   1423.58582     585.9591     631.7956   1423.58582     585.9591     631.7956
   1423.57056     585.6044     631.6094   1423.57056     585.6044     631.6094
   1423.55530     585.9559     631.2422   1423.55530     585.9559     631.2422
   1423.54004     584.3900     630.5317   1423.54004     584.3900     630.5317
   1423.52478     584.4723     631.1070   1423.52478     584.4723     631.1070
   1423.50952     585.1024     628.8721   1423.50952     585.1024     628.8721
   1423.49426     583.6752     628.2833   1423.49426     583.6752     628.2833
   1423.47900     583.6412     628.5524   1423.47900     583.6412     628.5524
   1423.46375     583.4873     628.7311   1423.46375     583.4873     628.7311
   1423.44849     583.1478     627.7379   1423.44849     583.1478     627.7379
   1423.43323     583.4941     628.8874   1423.43323     583.4941     628.8874
   1423.41797     582.8527     627.2094   1423.41797     582.8527     627.2094
   1423.40271     582.3860     626.8236   1423.40271     582.3860     626.8236
   1423.38745     581.9921     625.9714   1423.38745     581.9921     625.9714
   1423.37219     581.8939     624.9093   1423.37219     581.8939     624.9093
   1423.35693     580.5576     626.2106   1423.35693     580.5576     626.2106
   1423.34167     580.9224     623.5362   1423.34167     580.9224     623.5362
   1423.32642     581.5433     623.6912   1423.32642     581.5433     623.6912
   1423.31116     581.2914     624.7594   1423.31116     581.2914     624.7594
   1423.29590     580.1054     623.0081   1423.29590     580.1054     623.0081
   1423.28064     579.2538     622.3148   1423.28064     579.2538     622.3148
   1423.26538     579.1515     621.8336   1423.26538     579.1515     621.8336
   1423.25012     578.6562     622.9356   1423.25012     578.6562     622.9356
   1423.23486     578.2277     620.5820   1423.23486     578.2277     620.5820
   1423.21960     579.0369     620.1036   1423.21960     579.0369     620.1036
   1423.20435     578.1373     620.3508   1423.20435     578.1373     620.3508
   1423.18909     577.7800     619.9644   1423.18909     577.7800     619.9644
   1423.17383     577.6514     619.0228   1423.17383     577.6514     619.0228
   1423.15857     578.0792     617.7715   1423.15857     578.0792     617.7715
   1423.14331     577.3826     618.2226   1423.14331     577.3826     618.2226
   1423.12805     576.8170     617.7601   1423.12805     576.8170     617.7601
   1423.11279     578.0004     617.3884   1423.11279     578.0004     617.3884
   1423.09753     576.5566     615.9205   1423.09753     576.5566     615.9205
   1423.08228     576.6819     615.3888   1423.08228     576.6819     615.3888
   1423.06702     575.8835     615.0369   1423.06702     575.8835     615.0369
   1423.05176     576.2556     613.8097   1423.05176     576.2556     613.8097
   1423.03650     574.9679     613.4153   1423.03650     574.9679     613.4153
   1423.02124     575.2815     612.6833   1423.02124     575.2815     612.6833
   1423.00598     574.7959     612.9134   1423.00598     574.7959     612.9134
   1422.99072     574.5501     611.3809   1422.99072     574.5501     611.3809
   1422.97546     574.3445     611.0880   1422.97546     574.3445     611.0880
   1422.96021     574.3210     610.0515   1422.96021     574.3210     610.0515
   1422.94495     574.1295     609.1916   1422.94495     574.1295     609.1916
   1422.92969     574.3647     609.1410   1422.92969     574.3647     609.1410
   1422.91443     574.6100     608.0558   1422.91443     574.6100     608.0558
   1422.89917     574.1750     607.8282   1422.89917     574.1750     607.8282
   1422.88391     573.3535     606.7735   1422.88391     573.3535     606.7735
   1422.86865     573.4548     605.9741   1422.86865     573.4548     605.9741
   1422.85339     572.6936     605.5582   1422.85339     572.6936     605.5582
   1422.83813     572.9562     603.5048   1422.83813     572.9562     603.5048
   1422.82288     572.7841     603.8454   1422.82288     572.7841     603.8454
   1422.80762     572.5455     603.8343   1422.80762     572.5455     603.8343
   1422.79236     572.1652     602.0561   1422.79236     572.1652     602.0561
   1422.77710     571.6382     601.5359   1422.77710     571.6382     601.5359
   1422.76184     572.0805     600.5565   1422.76184     572.0805     600.5565
   1422.74658     571.7099     600.2075   1422.74658     571.7099     600.2075
   1422.73132     571.3965     599.6201   1422.73132     571.3965     599.6201
   1422.71606     571.4607     599.3561   1422.71606     571.4607     599.3561
   1422.70081     571.5439     598.1449   1422.70081     571.5439     598.1449
   1422.68555     570.9280     597.9718   1422.68555     570.9280     597.9718
   1422.67029     569.8324     596.7307   1422.67029     569.8324     596.7307
   1422.65503     569.8326     595.7839   1422.65503     569.8326     595.7839
   1422.63977     569.7791     594.5978   1422.63977     569.7791     594.5978
   1422.62451     570.0045     593.0648   1422.62451     570.0045     593.0648
   1422.60925     569.4359     593.5786   1422.60925     569.4359     593.5786
   1422.59399     569.2402     592.2202   1422.59399     569.2402     592.2202
   1422.57874     569.2200     591.9047   1422.57874     569.2200     591.9047
   1422.56348     568.9215     590.7898   1422.56348     568.9215     590.7898
   1422.54822     569.0927     589.3920   1422.54822     569.0927     589.3920
   1422.53296     568.2337     588.3482   1422.53296     568.2337     588.3482
   1422.51770     569.0327     588.9927   1422.51770     569.0327     588.9927
   1422.50244     569.2367     586.9603   1422.50244     569.2367     586.9603
   1422.48718     569.1375     585.5322   1422.48718     569.1375     585.5322
   1422.47192     567.9507     585.8950   1422.47192     567.9507     585.8950
   1422.45667     567.8159     583.7422   1422.45667     567.8159     583.7422
   1422.44141     567.3320     584.2615   1422.44141     567.3320     584.2615
   1422.42615     567.5244     583.4891   1422.42615     567.5244     583.4891
   1422.41089     567.7693     582.0675   1422.41089     567.7693     582.0675
   1422.39563     567.4255     581.4050   1422.39563     567.4255     581.4050
   1422.38037     566.8817     580.0526   1422.38037     566.8817     580.0526
   1422.36511     567.5095     579.3467   1422.36511     567.5095     579.3467
   1422.34985     566.8748     578.3561   1422.34985     566.8748     578.3561
   1422.33459     567.4402     577.8008   1422.33459     567.4402     577.8008
   1422.31934     566.7701     576.5239   1422.31934     566.7701     576.5239
   1422.30408     567.1176     575.8488   1422.30408     567.1176     575.8488
   1422.28882     566.3193     575.1608   1422.28882     566.3193     575.1608
   1422.27356     566.6432     573.8911   1422.27356     566.6432     573.8911
   1422.25830     566.9283     572.0282   1422.25830     566.9283     572.0282
   1422.24304     565.1583     573.5479   1422.24304     565.1583     573.5479
   1422.22778     565.9564     572.1757   1422.22778     565.9564     572.1757
   1422.21252     566.5319     570.8166   1422.21252     566.5319     570.8166
   1422.19727     566.2627     569.0901   1422.19727     566.2627     569.0901
   1422.18201     565.8008     567.8154   1422.18201     565.8008     567.8154
   1422.16675     565.4706     567.4563   1422.16675     565.4706     567.4563
   1422.15149     565.1296     565.7230   1422.15149     565.1296     565.7230
   1422.13623     565.3452     565.6976   1422.13623     565.3452     565.6976
   1422.12097     564.9103     565.0818   1422.12097     564.9103     565.0818
   1422.10571     565.2645     563.5139   1422.10571     565.2645     563.5139
   1422.09045     565.3354     562.4337   1422.09045     565.3354     562.4337
   1422.07520     564.1769     560.9123   1422.07520     564.1769     560.9123
   1422.05994     564.5368     560.3619   1422.05994     564.5368     560.3619
   1422.04468     564.9990     559.4564   1422.04468     564.9990     559.4564
   1422.02942     564.4819     558.3984   1422.02942     564.4819     558.3984
   1422.01416     563.5968     557.3288   1422.01416     563.5968     557.3288
   1421.99890     563.4833     556.5106   1421.99890     563.4833     556.5106
   1421.98364     564.0712     555.0520   1421.98364     564.0712     555.0520
   1421.96838     563.5555     554.1792   1421.96838     563.5555     554.1792
   1421.95312     564.0357     553.3431   1421.95312     564.0357     553.3431
   1421.93787     563.7245     552.4443   1421.93787     563.7245     552.4443
   1421.92261     562.8193     551.9370   1421.92261     562.8193     551.9370
   1421.90735     563.8273     550.8199   1421.90735     563.8273     550.8199
   1421.89209     563.1180     549.6514   1421.89209     563.1180     549.6514
   1421.87683     562.9063     548.2394   1421.87683     562.9063     548.2394
   1421.86157     563.9352     548.0363   1421.86157     563.9352     548.0363
   1421.84631     560.8340     546.7040   1421.84631     560.8340     546.7040
   1421.83105     562.9617     545.7077   1421.83105     562.9617     545.7077
   1421.81580     562.2412     544.3892   1421.81580     562.2412     544.3892
   1421.80054     562.1762     543.6129   1421.80054     562.1762     543.6129
   1421.78528     562.0709     542.2311   1421.78528     562.0709     542.2311
   1421.77002     562.2984     542.0986   1421.77002     562.2984     542.0986
   1421.75476     562.5764     540.8037   1421.75476     562.5764     540.8037
   1421.73950     562.1876     539.3022   1421.73950     562.1876     539.3022
   1421.72424     561.8371     539.4398   1421.72424     561.8371     539.4398
   1421.70898     561.9492     537.3700   1421.70898     561.9492     537.3700
   1421.69373     561.4355     536.7922   1421.69373     561.4355     536.7922
   1421.67847     561.1187     535.4299   1421.67847     561.1187     535.4299
   1421.66321     561.2656     534.9371   1421.66321     561.2656     534.9371
   1421.64795     560.5083     533.9694   1421.64795     560.5083     533.9694
   1421.63269     560.8788     533.0482   1421.63269     560.8788     533.0482
   1421.61743     560.4027     531.5547   1421.61743     560.4027     531.5547
   1421.60217     560.3831     530.5870   1421.60217     560.3831     530.5870
   1421.58691     560.1636     529.4436   1421.58691     560.1636     529.4436
   1421.57166     559.9486     528.3264   1421.57166     559.9486     528.3264
   1421.55640     560.3043     528.6626   1421.55640     560.3043     528.6626
   1421.54114     561.2597     526.7844   1421.54114     561.2597     526.7844
   1421.52588     561.4494     526.3703   1421.52588     561.4494     526.3703
   1421.51062     561.3033     524.9634   1421.51062     561.3033     524.9634
   1421.49536     560.9012     524.3550   1421.49536     560.9012     524.3550
   1421.48010     560.9578     523.7432   1421.48010     560.9578     523.7432
   1421.46484     562.2454     522.8589   1421.46484     562.2454     522.8589
   1421.44958     560.2834     521.7720   1421.44958     560.2834     521.7720
   1421.43433     562.2126     521.3782   1421.43433     562.2126     521.3782
   1421.41907     562.6012     521.3962   1421.41907     562.6012     521.3962
   1421.40381     562.1691     521.3206   1421.40381     562.1691     521.3206
   1421.38855     561.5681     518.6761   1421.38855     561.5681     518.6761
   1421.37329     562.0408     518.1205   1421.37329     562.0408     518.1205
   1421.35803     561.7784     516.3705   1421.35803     561.7784     516.3705
   1421.34277     561.0182     515.2439   1421.34277     561.0182     515.2439
   1421.32751     560.0914     513.9029   1421.32751     560.0914     513.9029
   1421.31226     560.4648     514.1423   1421.31226     560.4648     514.1423
   1421.29700     560.5449     511.7329   1421.29700     560.5449     511.7329
   1421.28174     560.7607     511.7056   1421.28174     560.7607     511.7056
   1421.26648     560.0875     511.0099   1421.26648     560.0875     511.0099
   1421.25122     560.3630     509.9223   1421.25122     560.3630     509.9223
   1421.23596     560.4056     508.0481   1421.23596     560.4056     508.0481
   1421.22070     561.2521     507.2015   1421.22070     561.2521     507.2015
   1421.20544     560.6952     506.6348   1421.20544     560.6952     506.6348
   1421.19019     559.6660     506.1084   1421.19019     559.6660     506.1084
   1421.17493     559.2995     504.7904   1421.17493     559.2995     504.7904
   1421.15967     559.2653     503.4686   1421.15967     559.2653     503.4686
   1421.14441     560.0275     501.7532   1421.14441     560.0275     501.7532
   1421.12915     560.3275     501.4023   1421.12915     560.3275     501.4023
   1421.11389     560.5703     502.8414   1421.11389     560.5703     502.8414
   1421.09863     561.5007     501.3965   1421.09863     561.5007     501.3965
   1421.08337     563.7137     501.8828   1421.08337     563.7137     501.8828
   1421.06812     566.6608     503.4724   1421.06812     566.6608     503.4724
   1421.05286     572.8375     509.3688   1421.05286     572.8375     509.3688
   1421.03760     586.1700     520.4916   1421.03760     586.1700     520.4916
   1421.02234     614.5527     543.7300   1421.02234     614.5527     543.7300
   1421.00708     664.0428     583.7199   1421.00708     664.0428     583.7199
   1420.99182     663.6632     583.7899   1420.99182     663.6632     583.7899
   1420.97656     655.2559     575.8466   1420.97656     655.2559     575.8466
   1420.96130     679.3614     595.1793   1420.96130     679.3614     595.1793
   1420.94604     749.2651     653.6189   1420.94604     749.2651     653.6189
   1420.93079     763.5282     664.0495   1420.93079     763.5282     664.0495
   1420.91553     708.4762     617.1317   1420.91553     708.4762     617.1317
   1420.90027     676.6379     588.6100   1420.90027     676.6379     588.6100
   1420.88501     684.5698     596.2006   1420.88501     684.5698     596.2006
   1420.86975     722.3104     626.5450   1420.86975     722.3104     626.5450
   1420.85449     777.7404     672.3175   1420.85449     777.7404     672.3175
   1420.83923     830.2712     714.8502   1420.83923     830.2712     714.8502
   1420.82397     888.1161     762.3860   1420.82397     888.1161     762.3860
   1420.80872     958.8263     822.4241   1420.80872     958.8263     822.4241
   1420.79346    1026.2529     878.4706   1420.79346    1026.2529     878.4706
   1420.77820    1103.5149     941.6227   1420.77820    1103.5149     941.6227
   1420.76294    1110.9265     944.5201   1420.76294    1110.9265     944.5201
   1420.74768    1185.5378    1006.7301   1420.74768    1185.5378    1006.7301
   1420.73242    1332.5778    1126.4794   1420.73242    1332.5778    1126.4794
   1420.71716    1381.4830    1165.1907   1420.71716    1381.4830    1165.1907
   1420.70190    1418.0269    1193.5500   1420.70190    1418.0269    1193.5500
   1420.68665    1555.3212    1303.5811   1420.68665    1555.3212    1303.5811
   1420.67139    1617.5942    1357.7542   1420.67139    1617.5942    1357.7542
   1420.65613    1578.1073    1319.0168   1420.65613    1578.1073    1319.0168
   1420.64087    1360.5961    1135.3875   1420.64087    1360.5961    1135.3875
   1420.62561    1098.7706     919.5759   1420.62561    1098.7706     919.5759
   1420.61035     938.6155     785.3748   1420.61035     938.6155     785.3748
   1420.59509     841.0613     704.7406   1420.59509     841.0613     704.7406
   1420.57983     780.1993     654.4257   1420.57983     780.1993     654.4257
   1420.56458     831.5064     693.1155   1420.56458     831.5064     693.1155
   1420.54932    1051.2256     874.1758   1420.54932    1051.2256     874.1758
   1420.53406    1293.7778    1067.4686   1420.53406    1293.7778    1067.4686
   1420.51880    1466.0293    1208.9358   1420.51880    1466.0293    1208.9358
   1420.50354    1441.0177    1188.2784   1420.50354    1441.0177    1188.2784
   1420.48828    1392.9747    1146.8197   1420.48828    1392.9747    1146.8197
   1420.47302    1320.5317    1085.6685   1420.47302    1320.5317    1085.6685
   1420.45776    1353.7657    1111.9308   1420.45776    1353.7657    1111.9308
   1420.44250    1121.5404     920.6309   1420.44250    1121.5404     920.6309
   1420.42725     805.4371     665.3657   1420.42725     805.4371     665.3657
   1420.41199     659.4823     545.8412   1420.41199     659.4823     545.8412
   1420.39673     607.0078     503.1270   1420.39673     607.0078     503.1270
   1420.38147     581.7660     482.7337   1420.38147     581.7660     482.7337
   1420.36621     569.9721     472.1953   1420.36621     569.9721     472.1953
   1420.35095     564.4999     465.9550   1420.35095     564.4999     465.9550
   1420.33569     559.4296     462.7551   1420.33569     559.4296     462.7551
   1420.32043     557.2966     460.2870   1420.32043     557.2966     460.2870
   1420.30518     555.9344     459.0644   1420.30518     555.9344     459.0644
   1420.28992     554.0913     457.0715   1420.28992     554.0913     457.0715
   1420.27466     554.1744     456.0358   1420.27466     554.1744     456.0358
   1420.25940     553.7344     454.5504   1420.25940     553.7344     454.5504
   1420.24414     553.1567     453.8082   1420.24414     553.1567     453.8082
   1420.22888     552.4965     452.7164   1420.22888     552.4965     452.7164
   1420.21362     552.2189     451.8378   1420.21362     552.2189     451.8378
   1420.19836     550.4000     450.5977   1420.19836     550.4000     450.5977
   1420.18311     550.9866     449.7789   1420.18311     550.9866     449.7789
   1420.16785     549.9283     448.7327   1420.16785     549.9283     448.7327
   1420.15259     549.3337     448.8074   1420.15259     549.3337     448.8074
   1420.13733     549.0429     447.0979   1420.13733     549.0429     447.0979
   1420.12207     548.8750     445.5216   1420.12207     548.8750     445.5216
   1420.10681     549.0555     445.1171   1420.10681     549.0555     445.1171
   1420.09155     547.0967     443.4759   1420.09155     547.0967     443.4759
   1420.07629     546.7290     442.8846   1420.07629     546.7290     442.8846
   1420.06104     546.7947     442.8984   1420.06104     546.7947     442.8984
   1420.04578     547.6856     441.4406   1420.04578     547.6856     441.4406
   1420.03052     545.8538     441.6409   1420.03052     545.8538     441.6409
   1420.01526     546.3196     441.2102   1420.01526     546.3196     441.2102
   1420.00000     547.5657     441.4077   1420.00000     547.5657     441.4077
   1419.98474     548.8117     441.6051   1419.98474     548.8117     441.6051
   1419.96948     548.5124     440.7152   1419.96948     548.5124     440.7152
   1419.95422     546.3135     438.8460   1419.95422     546.3135     438.8460
   1419.93896     546.3745     438.3273   1419.93896     546.3745     438.3273
   1419.92371     545.3989     438.3190   1419.92371     545.3989     438.3190
   1419.90845     545.1469     437.5273   1419.90845     545.1469     437.5273
   1419.89319     546.3087     437.3801   1419.89319     546.3087     437.3801
   1419.87793     546.0442     436.6061   1419.87793     546.0442     436.6061
   1419.86267     546.2540     436.4100   1419.86267     546.2540     436.4100
   1419.84741     547.0510     435.9776   1419.84741     547.0510     435.9776
   1419.83215     547.1234     435.3691   1419.83215     547.1234     435.3691
   1419.81689     546.1344     435.4548   1419.81689     546.1344     435.4548
   1419.80164     546.2962     435.3997   1419.80164     546.2962     435.3997
   1419.78638     546.3276     434.8270   1419.78638     546.3276     434.8270
   1419.77112     546.7539     434.3939   1419.77112     546.7539     434.3939
   1419.75586     545.6134     433.8872   1419.75586     545.6134     433.8872
   1419.74060     546.9475     433.4693   1419.74060     546.9475     433.4693
   1419.72534     546.5845     433.7122   1419.72534     546.5845     433.7122
   1419.71008     546.5140     433.8475   1419.71008     546.5140     433.8475
   1419.69482     547.3729     433.2181   1419.69482     547.3729     433.2181
   1419.67957     546.7319     433.3758   1419.67957     546.7319     433.3758
   1419.66431     547.4138     433.2675   1419.66431     547.4138     433.2675
   1419.64905     546.8434     432.5552   1419.64905     546.8434     432.5552
   1419.63379     547.1592     432.6606   1419.63379     547.1592     432.6606
   1419.61853     546.7855     431.7312   1419.61853     546.7855     431.7312
   1419.60327     547.7208     432.8719   1419.60327     547.7208     432.8719
   1419.58801     548.1586     431.7121   1419.58801     548.1586     431.7121
   1419.57275     547.4058     432.3085   1419.57275     547.4058     432.3085
   1419.55750     548.5524     432.1848   1419.55750     548.5524     432.1848
   1419.54224     547.8842     431.4247   1419.54224     547.8842     431.4247
   1419.52698     548.7951     431.8112   1419.52698     548.7951     431.8112
   1419.51172     548.1171     431.1577   1419.51172     548.1171     431.1577
   1419.49646     548.5706     431.5094   1419.49646     548.5706     431.5094
   1419.48120     548.5933     431.6940   1419.48120     548.5933     431.6940
   1419.46594     548.7712     431.3447   1419.46594     548.7712     431.3447
   1419.45068     548.8782     432.0405   1419.45068     548.8782     432.0405
   1419.43542     549.3982     431.9303   1419.43542     549.3982     431.9303
   1419.42017     550.2850     431.4166   1419.42017     550.2850     431.4166
   1419.40491     550.0742     431.4360   1419.40491     550.0742     431.4360
   1419.38965     549.7757     432.0263   1419.38965     549.7757     432.0263
   1419.37439     551.2001     431.6999   1419.37439     551.2001     431.6999
   1419.35913     549.8217     431.5119   1419.35913     549.8217     431.5119
   1419.34387     551.0674     431.9742   1419.34387     551.0674     431.9742
   1419.32861     550.5265     431.8474   1419.32861     550.5265     431.8474
   1419.31335     551.5762     431.3393   1419.31335     551.5762     431.3393
   1419.29810     551.1307     432.0257   1419.29810     551.1307     432.0257
   1419.28284     551.3495     432.0149   1419.28284     551.3495     432.0149
   1419.26758     552.8399     433.1884   1419.26758     552.8399     433.1884
   1419.25232     552.7117     432.5995   1419.25232     552.7117     432.5995
   1419.23706     552.0905     432.0304   1419.23706     552.0905     432.0304
   1419.22180     552.2805     432.7300   1419.22180     552.2805     432.7300
   1419.20654     553.0320     433.1929   1419.20654     553.0320     433.1929
   1419.19128     553.6873     433.0190   1419.19128     553.6873     433.0190
   1419.17603     553.4270     433.7189   1419.17603     553.4270     433.7189
   1419.16077     554.0722     433.0480   1419.16077     554.0722     433.0480
   1419.14551     554.4708     433.4771   1419.14551     554.4708     433.4771
   1419.13025     555.3270     433.8455   1419.13025     555.3270     433.8455
   1419.11499     555.3326     434.3807   1419.11499     555.3326     434.3807
   1419.09973     556.6519     434.4844   1419.09973     556.6519     434.4844
   1419.08447     556.1362     434.5087   1419.08447     556.1362     434.5087
   1419.06921     555.8838     435.4691   1419.06921     555.8838     435.4691
   1419.05396     556.6917     435.7012   1419.05396     556.6917     435.7012
   1419.03870     556.9225     435.2789   1419.03870     556.9225     435.2789
   1419.02344     556.4006     435.4605   1419.02344     556.4006     435.4605
   1419.00818     557.1535     435.7582   1419.00818     557.1535     435.7582
   1418.99292     557.4342     435.9595   1418.99292     557.4342     435.9595
   1418.97766     557.6389     436.5328   1418.97766     557.6389     436.5328
   1418.96240     558.6595     437.0464   1418.96240     558.6595     437.0464
   1418.94714     559.6870     437.6993   1418.94714     559.6870     437.6993
   1418.93188     559.2138     438.2581   1418.93188     559.2138     438.2581
   1418.91663     558.9869     438.8156   1418.91663     558.9869     438.8156
   1418.90137     559.8661     439.1524   1418.90137     559.8661     439.1524
   1418.88611     559.6797     439.7464   1418.88611     559.6797     439.7464
   1418.87085     560.6954     439.1486   1418.87085     560.6954     439.1486
   1418.85559     561.0067     440.3390   1418.85559     561.0067     440.3390
   1418.84033     561.1886     440.9836   1418.84033     561.1886     440.9836
   1418.82507     561.9354     441.4277   1418.82507     561.9354     441.4277
   1418.80981     562.2331     441.4144   1418.80981     562.2331     441.4144
   1418.79456     563.2836     442.1558   1418.79456     563.2836     442.1558
   1418.77930     563.3242     442.9529   1418.77930     563.3242     442.9529
   1418.76404     563.2884     443.4365   1418.76404     563.2884     443.4365
   1418.74878     564.2182     443.5582   1418.74878     564.2182     443.5582
   1418.73352     565.0662     444.1044   1418.73352     565.0662     444.1044
   1418.71826     564.9507     444.4662   1418.71826     564.9507     444.4662
   1418.70300     564.9953     444.7170   1418.70300     564.9953     444.7170
   1418.68774     566.6605     445.8013   1418.68774     566.6605     445.8013
   1418.67249     566.9202     446.5905   1418.67249     566.9202     446.5905
   1418.65723     567.1060     447.6855   1418.65723     567.1060     447.6855
   1418.64197     566.9188     448.4116   1418.64197     566.9188     448.4116
   1418.62671     567.2932     449.5499   1418.62671     567.2932     449.5499
   1418.61145     568.4073     448.0436   1418.61145     568.4073     448.0436
   1418.59619     568.7873     450.2282   1418.59619     568.7873     450.2282
   1418.58093     569.7764     450.1978   1418.58093     569.7764     450.1978
   1418.56567     570.2122     451.6454   1418.56567     570.2122     451.6454
   1418.55042     571.2508     451.4865   1418.55042     571.2508     451.4865
   1418.53516     571.5046     453.2000   1418.53516     571.5046     453.2000
   1418.51990     570.6383     453.6843   1418.51990     570.6383     453.6843
   1418.50464     572.6514     453.8123   1418.50464     572.6514     453.8123
   1418.48938     573.0942     454.6077   1418.48938     573.0942     454.6077
   1418.47412     573.5313     455.4252   1418.47412     573.5313     455.4252
   1418.45886     574.4039     455.6191   1418.45886     574.4039     455.6191
   1418.44360     574.9762     456.9207   1418.44360     574.9762     456.9207
   1418.42834     574.9935     457.9208   1418.42834     574.9935     457.9208
   1418.41309     575.3193     458.9405   1418.41309     575.3193     458.9405
   1418.39783     576.4893     458.7307   1418.39783     576.4893     458.7307
   1418.38257     576.0946     459.8008   1418.38257     576.0946     459.8008
   1418.36731     577.5992     460.9049   1418.36731     577.5992     460.9049
   1418.35205     577.8450     461.7703   1418.35205     577.8450     461.7703
   1418.33679     578.4424     462.1316   1418.33679     578.4424     462.1316
   1418.32153     579.1377     463.5849   1418.32153     579.1377     463.5849
   1418.30627     579.3067     464.1035   1418.30627     579.3067     464.1035
   1418.29102     581.0629     464.9226   1418.29102     581.0629     464.9226
   1418.27576     580.7034     465.2572   1418.27576     580.7034     465.2572
   1418.26050     581.2169     466.6837   1418.26050     581.2169     466.6837
   1418.24524     581.9971     467.5758   1418.24524     581.9971     467.5758
   1418.22998     582.9251     467.7646   1418.22998     582.9251     467.7646
   1418.21472     583.0025     469.2272   1418.21472     583.0025     469.2272
   1418.19946     584.5573     469.8960   1418.19946     584.5573     469.8960
   1418.18420     584.5393     471.7588   1418.18420     584.5393     471.7588
   1418.16895     585.3856     472.1973   1418.16895     585.3856     472.1973
   1418.15369     585.5611     473.3247   1418.15369     585.5611     473.3247
   1418.13843     586.3296     473.5848   1418.13843     586.3296     473.5848
   1418.12317     587.6313     474.3752   1418.12317     587.6313     474.3752
   1418.10791     587.8604     475.4102   1418.10791     587.8604     475.4102
   1418.09265     588.8161     477.1342   1418.09265     588.8161     477.1342
   1418.07739     589.4828     478.1396   1418.07739     589.4828     478.1396
   1418.06213     590.1657     477.8480   1418.06213     590.1657     477.8480
   1418.04688     590.7628     480.2626   1418.04688     590.7628     480.2626
   1418.03162     591.6784     480.1836   1418.03162     591.6784     480.1836
   1418.01636     592.0065     481.9276   1418.01636     592.0065     481.9276
   1418.00110     592.8117     483.3136   1418.00110     592.8117     483.3136
   1417.98584     593.2820     483.1886   1417.98584     593.2820     483.1886
   1417.97058     594.2334     484.7186   1417.97058     594.2334     484.7186
   1417.95532     595.1358     485.1508   1417.95532     595.1358     485.1508
   1417.94006     595.4784     486.9067   1417.94006     595.4784     486.9067
   1417.92480     596.5510     487.3731   1417.92480     596.5510     487.3731
   1417.90955     597.6967     488.5664   1417.90955     597.6967     488.5664
   1417.89429     597.4588     489.1115   1417.89429     597.4588     489.1115
   1417.87903     598.0615     490.6705   1417.87903     598.0615     490.6705
   1417.86377     598.7666     491.1001   1417.86377     598.7666     491.1001
   1417.84851     600.0447     492.2850   1417.84851     600.0447     492.2850
   1417.83325     600.8712     493.3729   1417.83325     600.8712     493.3729
   1417.81799     600.3839     495.3550   1417.81799     600.3839     495.3550
   1417.80273     602.4555     495.8132   1417.80273     602.4555     495.8132
   1417.78748     601.6221     497.1995   1417.78748     601.6221     497.1995
   1417.77222     603.0893     497.4019   1417.77222     603.0893     497.4019
   1417.75696     604.7119     499.1449   1417.75696     604.7119     499.1449
   1417.74170     603.4941     499.6439   1417.74170     603.4941     499.6439
   1417.72644     605.9921     501.5560   1417.72644     605.9921     501.5560
   1417.71118     606.5123     502.1814   1417.71118     606.5123     502.1814
   1417.69592     607.6111     503.1983   1417.69592     607.6111     503.1983
   1417.68066     607.0820     504.2161   1417.68066     607.0820     504.2161
   1417.66541     607.8849     506.3745   1417.66541     607.8849     506.3745
   1417.65015     609.9578     506.6375   1417.65015     609.9578     506.6375
   1417.63489     610.4358     508.4003   1417.63489     610.4358     508.4003
   1417.61963     609.6836     509.0266   1417.61963     609.6836     509.0266
   1417.60437     610.2708     510.5090   1417.60437     610.2708     510.5090
   1417.58911     612.4089     510.5989   1417.58911     612.4089     510.5989
   1417.57385     612.4445     512.2368   1417.57385     612.4445     512.2368
   1417.55859     613.6260     513.6722   1417.55859     613.6260     513.6722
   1417.54333     613.9843     513.9760   1417.54333     613.9843     513.9760
   1417.52808     615.4062     515.1257   1417.52808     615.4062     515.1257
   1417.51282     615.4930     517.2825   1417.51282     615.4930     517.2825
   1417.49756     616.8153     517.0057   1417.49756     616.8153     517.0057
   1417.48230     616.9110     518.6775   1417.48230     616.9110     518.6775
   1417.46704     617.0616     520.2283   1417.46704     617.0616     520.2283
   1417.45178     618.5376     521.1317   1417.45178     618.5376     521.1317
   1417.43652     618.5908     522.3246   1417.43652     618.5908     522.3246
   1417.42126     619.2938     523.3610   1417.42126     619.2938     523.3610
   1417.40601     620.1249     524.2497   1417.40601     620.1249     524.2497
   1417.39075     620.6962     525.6249   1417.39075     620.6962     525.6249
   1417.37549     622.0531     526.4746   1417.37549     622.0531     526.4746
   1417.36023     622.3189     527.3564   1417.36023     622.3189     527.3564
   1417.34497     623.1381     528.0331   1417.34497     623.1381     528.0331
   1417.32971     624.4891     529.7748   1417.32971     624.4891     529.7748
   1417.31445     624.4164     529.9550   1417.31445     624.4164     529.9550
   1417.29919     625.7503     531.5580   1417.29919     625.7503     531.5580
   1417.28394     625.4203     531.8935   1417.28394     625.4203     531.8935
   1417.26868     626.5679     533.1306   1417.26868     626.5679     533.1306
   1417.25342     627.0724     534.9472   1417.25342     627.0724     534.9472
   1417.23816     627.8381     534.8275   1417.23816     627.8381     534.8275
   1417.22290     628.8967     536.2460   1417.22290     628.8967     536.2460
   1417.20764     629.0851     536.8586   1417.20764     629.0851     536.8586
   1417.19238     630.4869     538.5069   1417.19238     630.4869     538.5069
   1417.17712     631.0890     539.4980   1417.17712     631.0890     539.4980
   1417.16187     630.7474     541.0950   1417.16187     630.7474     541.0950
   1417.14661     631.7842     541.4179   1417.14661     631.7842     541.4179
   1417.13135     631.5511     542.5245   1417.13135     631.5511     542.5245
   1417.11609     632.9248     542.2543   1417.11609     632.9248     542.2543
   1417.10083     632.7808     543.6171   1417.10083     632.7808     543.6171
   1417.08557     633.0153     544.9724   1417.08557     633.0153     544.9724
   1417.07031     634.6707     545.9415   1417.07031     634.6707     545.9415
   1417.05505     634.9548     545.8759   1417.05505     634.9548     545.8759
   1417.03979     634.8798     547.6888   1417.03979     634.8798     547.6888
   1417.02454     636.2228     548.8978   1417.02454     636.2228     548.8978
   1417.00928     637.0911     548.2970   1417.00928     637.0911     548.2970
   1416.99402     637.1620     549.5442   1416.99402     637.1620     549.5442
   1416.97876     637.1777     550.5988   1416.97876     637.1777     550.5988
   1416.96350     637.9406     550.1456   1416.96350     637.9406     550.1456
   1416.94824     638.5510     551.7005   1416.94824     638.5510     551.7005
   1416.93298     639.3660     552.4113   1416.93298     639.3660     552.4113
   1416.91772     638.4729     553.2667   1416.91772     638.4729     553.2667
   1416.90247     640.5480     553.8547   1416.90247     640.5480     553.8547
   1416.88721     641.0229     554.0956   1416.88721     641.0229     554.0956
   1416.87195     641.1956     554.4232   1416.87195     641.1956     554.4232
   1416.85669     641.3525     555.4068   1416.85669     641.3525     555.4068
   1416.84143     641.9360     556.1191   1416.84143     641.9360     556.1191
   1416.82617     641.5385     556.2539   1416.82617     641.5385     556.2539
   1416.81091     642.3562     557.0898   1416.81091     642.3562     557.0898
   1416.79565     642.7495     557.3597   1416.79565     642.7495     557.3597
   1416.78040     642.0815     557.6342   1416.78040     642.0815     557.6342
   1416.76514     644.3274     558.9891   1416.76514     644.3274     558.9891
   1416.74988     643.6347     558.9466   1416.74988     643.6347     558.9466
   1416.73462     644.0043     560.0172   1416.73462     644.0043     560.0172
   1416.71936     643.6853     559.3120   1416.71936     643.6853     559.3120
   1416.70410     644.2933     559.4595   1416.70410     644.2933     559.4595
   1416.68884     644.7962     560.7107   1416.68884     644.7962     560.7107
   1416.67358     645.5932     561.1402   1416.67358     645.5932     561.1402
   1416.65833     645.7737     561.2321   1416.65833     645.7737     561.2321
   1416.64307     646.0125     560.6598   1416.64307     646.0125     560.6598
   1416.62781     646.1757     561.7200   1416.62781     646.1757     561.7200
   1416.61255     647.5989     561.8423   1416.61255     647.5989     561.8423
   1416.59729     646.4952     561.5868   1416.59729     646.4952     561.5868
   1416.58203     646.8552     562.1592   1416.58203     646.8552     562.1592
   1416.56677     647.0325     561.8369   1416.56677     647.0325     561.8369
   1416.55151     646.2922     562.1278   1416.55151     646.2922     562.1278
   1416.53625     646.8412     562.2587   1416.53625     646.8412     562.2587
   1416.52100     646.8444     561.7454   1416.52100     646.8444     561.7454
   1416.50574     647.2579     561.7956   1416.50574     647.2579     561.7956
   1416.49048     647.2209     562.6080   1416.49048     647.2209     562.6080
   1416.47522     648.0096     562.2363   1416.47522     648.0096     562.2363
   1416.45996     648.6035     562.6586   1416.45996     648.6035     562.6586
   1416.44470     647.1028     562.4138   1416.44470     647.1028     562.4138
   1416.42944     648.0767     561.5057   1416.42944     648.0767     561.5057
   1416.41418     647.8404     562.6042   1416.41418     647.8404     562.6042
   1416.39893     647.7714     561.6022   1416.39893     647.7714     561.6022
   1416.38367     647.5529     561.2465   1416.38367     647.5529     561.2465
   1416.36841     648.0853     561.1651   1416.36841     648.0853     561.1651
   1416.35315     648.9085     560.9943   1416.35315     648.9085     560.9943
   1416.33789     648.0360     560.9554   1416.33789     648.0360     560.9554
   1416.32263     648.0940     560.2275   1416.32263     648.0940     560.2275
   1416.30737     647.4339     559.7804   1416.30737     647.4339     559.7804
   1416.29211     647.2191     560.0793   1416.29211     647.2191     560.0793
   1416.27686     647.7034     559.8685   1416.27686     647.7034     559.8685
   1416.26160     647.0939     559.2818   1416.26160     647.0939     559.2818
   1416.24634     647.6115     558.6490   1416.24634     647.6115     558.6490
   1416.23108     648.1451     557.6987   1416.23108     648.1451     557.6987
   1416.21582     646.6087     558.2667   1416.21582     646.6087     558.2667
   1416.20056     647.5948     558.1023   1416.20056     647.5948     558.1023
   1416.18530     647.1111     557.4609   1416.18530     647.1111     557.4609
   1416.17004     646.4241     556.6126   1416.17004     646.4241     556.6126
   1416.15479     646.9329     556.2571   1416.15479     646.9329     556.2571
   1416.13953     646.4705     555.4993   1416.13953     646.4705     555.4993
   1416.12427     645.9974     555.1827   1416.12427     645.9974     555.1827
   1416.10901     646.2115     554.5316   1416.10901     646.2115     554.5316
   1416.09375     645.6656     553.2797   1416.09375     645.6656     553.2797
   1416.07849     645.3779     553.4561   1416.07849     645.3779     553.4561
   1416.06323     645.1353     552.3249   1416.06323     645.1353     552.3249
   1416.04797     644.4152     553.7523   1416.04797     644.4152     553.7523
   1416.03271     644.5618     551.3025   1416.03271     644.5618     551.3025
   1416.01746     643.2564     550.8906   1416.01746     643.2564     550.8906
   1416.00220     644.2914     550.6317   1416.00220     644.2914     550.6317
   1415.98694     643.0082     549.7003   1415.98694     643.0082     549.7003
   1415.97168     643.6707     549.0504   1415.97168     643.6707     549.0504
   1415.95642     643.2493     548.2333   1415.95642     643.2493     548.2333
   1415.94116     641.9674     547.7449   1415.94116     641.9674     547.7449
   1415.92590     642.4545     546.6015   1415.92590     642.4545     546.6015
   1415.91064     641.9773     546.5243   1415.91064     641.9773     546.5243
   1415.89539     641.6988     546.1500   1415.89539     641.6988     546.1500
   1415.88013     641.0406     545.5428   1415.88013     641.0406     545.5428
   1415.86487     640.5797     544.1465   1415.86487     640.5797     544.1465
   1415.84961     640.2452     543.7957   1415.84961     640.2452     543.7957
   1415.83435     640.1003     543.0447   1415.83435     640.1003     543.0447
   1415.81909     639.4164     542.1793   1415.81909     639.4164     542.1793
   1415.80383     640.3008     541.2350   1415.80383     640.3008     541.2350
   1415.78857     637.6309     540.2803   1415.78857     637.6309     540.2803
   1415.77332     638.3514     539.4146   1415.77332     638.3514     539.4146
   1415.75806     636.0675     538.2194   1415.75806     636.0675     538.2194
   1415.74280     636.4866     537.4880   1415.74280     636.4866     537.4880
   1415.72754     635.3353     537.0383   1415.72754     635.3353     537.0383
   1415.71228     635.4958     535.9734   1415.71228     635.4958     535.9734
   1415.69702     635.8799     535.9238   1415.69702     635.8799     535.9238
   1415.68176     633.8693     534.7533   1415.68176     633.8693     534.7533
   1415.66650     633.4062     534.1463   1415.66650     633.4062     534.1463
   1415.65125     633.9589     533.0182   1415.65125     633.9589     533.0182
   1415.63599     632.3956     532.9695   1415.63599     632.3956     532.9695
   1415.62073     633.4283     531.6982   1415.62073     633.4283     531.6982
   1415.60547     632.2169     530.7758   1415.60547     632.2169     530.7758
   1415.59021     630.5992     530.1938   1415.59021     630.5992     530.1938
   1415.57495     630.9667     528.1895   1415.57495     630.9667     528.1895
   1415.55969     629.3706     527.9277   1415.55969     629.3706     527.9277
   1415.54443     629.6982     526.0778   1415.54443     629.6982     526.0778
   1415.52917     629.4367     526.5719   1415.52917     629.4367     526.5719
   1415.51392     627.4481     525.0723   1415.51392     627.4481     525.0723
   1415.49866     626.4904     523.7736   1415.49866     626.4904     523.7736
   1415.48340     626.9900     524.1443   1415.48340     626.9900     524.1443
   1415.46814     626.0806     523.4918   1415.46814     626.0806     523.4918
   1415.45288     626.9288     522.1462   1415.45288     626.9288     522.1462
   1415.43762     625.4534     521.5964   1415.43762     625.4534     521.5964
   1415.42236     623.6921     518.5637   1415.42236     623.6921     518.5637
   1415.40710     622.7487     519.2897   1415.40710     622.7487     519.2897
   1415.39185     621.8005     518.0543   1415.39185     621.8005     518.0543
   1415.37659     620.4760     517.1048   1415.37659     620.4760     517.1048
   1415.36133     621.1940     515.9130   1415.36133     621.1940     515.9130
   1415.34607     619.0852     514.6219   1415.34607     619.0852     514.6219
   1415.33081     617.3671     513.7773   1415.33081     617.3671     513.7773
   1415.31555     617.4161     513.3188   1415.31555     617.4161     513.3188
   1415.30029     616.9066     511.7901   1415.30029     616.9066     511.7901
   1415.28503     616.3386     511.5566   1415.28503     616.3386     511.5566
   1415.26978     614.3721     510.2372   1415.26978     614.3721     510.2372
   1415.25452     614.3557     510.3551   1415.25452     614.3557     510.3551
   1415.23926     613.0046     508.7997   1415.23926     613.0046     508.7997
   1415.22400     612.7852     507.5553   1415.22400     612.7852     507.5553
   1415.20874     611.3532     506.3989   1415.20874     611.3532     506.3989
   1415.19348     609.5637     506.0122   1415.19348     609.5637     506.0122
   1415.17822     609.2302     504.9591   1415.17822     609.2302     504.9591
   1415.16296     608.4094     503.2882   1415.16296     608.4094     503.2882
   1415.14771     606.5195     503.1174   1415.14771     606.5195     503.1174
   1415.13245     605.1064     501.1092   1415.13245     605.1064     501.1092
   1415.11719     604.5862     500.7743   1415.11719     604.5862     500.7743
   1415.10193     603.3001     499.8848   1415.10193     603.3001     499.8848
   1415.08667     601.7647     498.4239   1415.08667     601.7647     498.4239
   1415.07141     600.7612     496.4821   1415.07141     600.7612     496.4821
   1415.05615     600.1304     496.0861   1415.05615     600.1304     496.0861
   1415.04089     598.2488     494.5108   1415.04089     598.2488     494.5108
   1415.02563     597.8954     494.5930   1415.02563     597.8954     494.5930
   1415.01038     596.5008     493.1562   1415.01038     596.5008     493.1562
   1414.99512     595.9720     491.3927   1414.99512     595.9720     491.3927
   1414.97986     593.7181     490.7980   1414.97986     593.7181     490.7980
   1414.96460     592.2079     489.6039   1414.96460     592.2079     489.6039
   1414.94934     591.4288     488.0704   1414.94934     591.4288     488.0704
   1414.93408     590.0897     486.5405   1414.93408     590.0897     486.5405
   1414.91882     589.0848     485.5267   1414.91882     589.0848     485.5267
   1414.90356     587.5497     484.8010   1414.90356     587.5497     484.8010
   1414.88831     585.4272     483.7317   1414.88831     585.4272     483.7317
   1414.87305     584.1470     481.8877   1414.87305     584.1470     481.8877
   1414.85779     583.0687     480.6273   1414.85779     583.0687     480.6273
   1414.84253     581.8080     479.2602   1414.84253     581.8080     479.2602
   1414.82727     579.7744     478.7249   1414.82727     579.7744     478.7249
   1414.81201     579.4945     476.9698   1414.81201     579.4945     476.9698
   1414.79675     577.5309     476.3309   1414.79675     577.5309     476.3309
   1414.78149     575.2734     474.1325   1414.78149     575.2734     474.1325
   1414.76624     574.4051     473.0591   1414.76624     574.4051     473.0591
   1414.75098     573.1656     472.4481   1414.75098     573.1656     472.4481
   1414.73572     571.8479     471.1735   1414.73572     571.8479     471.1735
   1414.72046     569.0724     470.0418   1414.72046     569.0724     470.0418
   1414.70520     568.4544     468.1053   1414.70520     568.4544     468.1053
   1414.68994     566.4544     467.4365   1414.68994     566.4544     467.4365
   1414.67468     564.8797     465.0392   1414.67468     564.8797     465.0392
   1414.65942     563.4212     464.0267   1414.65942     563.4212     464.0267
   1414.64417     561.5508     463.0187   1414.64417     561.5508     463.0187
   1414.62891     560.1147     461.9029   1414.62891     560.1147     461.9029
   1414.61365     558.7481     460.7125   1414.61365     558.7481     460.7125
   1414.59839     556.4903     458.6265   1414.59839     556.4903     458.6265
   1414.58313     555.1533     457.1626   1414.58313     555.1533     457.1626
   1414.56787     553.0625     456.5896   1414.56787     553.0625     456.5896
   1414.55261     551.9683     454.9595   1414.55261     551.9683     454.9595
   1414.53735     548.9385     452.9683   1414.53735     548.9385     452.9683
   1414.52209     547.1428     450.7636   1414.52209     547.1428     450.7636
   1414.50684     545.1578     449.6776   1414.50684     545.1578     449.6776
   1414.49158     544.2377     449.0264   1414.49158     544.2377     449.0264
   1414.47632     542.3030     445.6649   1414.47632     542.3030     445.6649
   1414.46106     539.8897     446.0226   1414.46106     539.8897     446.0226
   1414.44580     538.2234     444.1928   1414.44580     538.2234     444.1928
   1414.43054     536.9620     443.2043   1414.43054     536.9620     443.2043
   1414.41528     534.3995     441.1727   1414.41528     534.3995     441.1727
   1414.40002     532.9047     439.6985   1414.40002     532.9047     439.6985
   1414.38477     530.8751     438.3651   1414.38477     530.8751     438.3651
   1414.36951     529.1243     436.6044   1414.36951     529.1243     436.6044
   1414.35425     526.7745     435.2394   1414.35425     526.7745     435.2394
   1414.33899     524.3426     432.9612   1414.33899     524.3426     432.9612
   1414.32373     522.0417     432.1259   1414.32373     522.0417     432.1259
   1414.30847     520.0645     430.3521   1414.30847     520.0645     430.3521
   1414.29321     518.2511     429.2400   1414.29321     518.2511     429.2400
   1414.27795     515.2451     427.3410   1414.27795     515.2451     427.3410
   1414.26270     513.7508     425.9006   1414.26270     513.7508     425.9006
   1414.24744     511.8770     423.2529   1414.24744     511.8770     423.2529
   1414.23218     510.0843     422.4773   1414.23218     510.0843     422.4773
   1414.21692     507.5863     420.4670   1414.21692     507.5863     420.4670
   1414.20166     505.8836     419.6565   1414.20166     505.8836     419.6565
   1414.18640     503.9709     417.3654   1414.18640     503.9709     417.3654
   1414.17114     501.1272     415.6357   1414.17114     501.1272     415.6357
   1414.15588     499.9282     414.4188   1414.15588     499.9282     414.4188
   1414.14062     496.4795     412.5946   1414.14062     496.4795     412.5946
   1414.12537     494.1570     411.2543   1414.12537     494.1570     411.2543
   1414.11011     491.4052     409.5538   1414.11011     491.4052     409.5538
   1414.09485     490.0551     407.3606   1414.09485     490.0551     407.3606
   1414.07959     487.6649     405.7522   1414.07959     487.6649     405.7522
   1414.06433     485.5269     404.1714   1414.06433     485.5269     404.1714
   1414.04907     483.4732     402.9421   1414.04907     483.4732     402.9421
   1414.03381     481.3467     401.3231   1414.03381     481.3467     401.3231
   1414.01855     478.9089     399.2110   1414.01855     478.9089     399.2110
   1414.00330     502.0727     406.7220   1414.00330     502.0727     406.7220
   1413.98804     475.3297     396.3142   1413.98804     475.3297     396.3142
   1413.97278     471.6933     394.0469   1413.97278     471.6933     394.0469
   1413.95752     469.3096     392.9963   1413.95752     469.3096     392.9963
   1413.94226     467.4047     390.4344   1413.94226     467.4047     390.4344
   1413.92700     464.7333     388.6441   1413.92700     464.7333     388.6441
   1413.91174     462.0468     387.1294   1413.91174     462.0468     387.1294
   1413.89648     460.2717     384.5006   1413.89648     460.2717     384.5006
   1413.88123     457.3382     384.0959   1413.88123     457.3382     384.0959
   1413.86597     454.8597     381.6008   1413.86597     454.8597     381.6008
   1413.85071     452.7700     380.1130   1413.85071     452.7700     380.1130
   1413.83545     450.0043     378.1675   1413.83545     450.0043     378.1675
   1413.82019     448.7534     376.6606   1413.82019     448.7534     376.6606
   1413.80493     446.1497     374.9453   1413.80493     446.1497     374.9453
   1413.78967     443.6062     373.1523   1413.78967     443.6062     373.1523
   1413.77441     441.5060     371.3512   1413.77441     441.5060     371.3512
   1413.75916     438.7047     369.2437   1413.75916     438.7047     369.2437
   1413.74390     436.9349     368.0131   1413.74390     436.9349     368.0131
   1413.72864     433.0059     366.7083   1413.72864     433.0059     366.7083
   1413.71338     431.8194     364.4915   1413.71338     431.8194     364.4915
   1413.69812     429.1003     362.8212   1413.69812     429.1003     362.8212
   1413.68286     426.7705     361.1892   1413.68286     426.7705     361.1892
   1413.66760     424.4588     359.4394   1413.66760     424.4588     359.4394
   1413.65234     421.7914     357.4739   1413.65234     421.7914     357.4739
   1413.63708     419.3856     356.2107   1413.63708     419.3856     356.2107
   1413.62183     417.0350     353.8234   1413.62183     417.0350     353.8234
   1413.60657     414.2308     351.9335   1413.60657     414.2308     351.9335
   1413.59131     412.2604     350.4622   1413.59131     412.2604     350.4622
   1413.57605     409.9719     348.3370   1413.57605     409.9719     348.3370
   1413.56079     407.8146     346.7771   1413.56079     407.8146     346.7771
   1413.54553     405.3495     345.8994   1413.54553     405.3495     345.8994
   1413.53027     403.3223     343.5526   1413.53027     403.3223     343.5526
   1413.51501     400.6371     341.9061   1413.51501     400.6371     341.9061
   1413.49976     398.8480     340.0962   1413.49976     398.8480     340.0962
   1413.48450     395.5879     339.2997   1413.48450     395.5879     339.2997
   1413.46924     393.8758     337.0502   1413.46924     393.8758     337.0502
   1413.45398     391.6846     335.6772   1413.45398     391.6846     335.6772
   1413.43872     389.3266     333.9145   1413.43872     389.3266     333.9145
   1413.42346     386.8314     332.2232   1413.42346     386.8314     332.2232
   1413.40820     384.4378     330.6148   1413.40820     384.4378     330.6148
   1413.39294     381.7649     328.9021   1413.39294     381.7649     328.9021
   1413.37769     380.0106     327.4325   1413.37769     380.0106     327.4325
   1413.36243     377.2964     325.1530   1413.36243     377.2964     325.1530
   1413.34717     375.2870     324.3877   1413.34717     375.2870     324.3877
   1413.33191     373.0554     322.5040   1413.33191     373.0554     322.5040
   1413.31665     371.1134     321.2164   1413.31665     371.1134     321.2164
   1413.30139     369.4677     319.4664   1413.30139     369.4677     319.4664
   1413.28613     366.8668     318.0354   1413.28613     366.8668     318.0354
   1413.27087     364.5090     315.9537   1413.27087     364.5090     315.9537
   1413.25562     362.5396     315.0232   1413.25562     362.5396     315.0232
   1413.24036     360.4943     313.3644   1413.24036     360.4943     313.3644
   1413.22510     358.3569     311.6903   1413.22510     358.3569     311.6903
   1413.20984     356.4088     310.8742   1413.20984     356.4088     310.8742
   1413.19458     354.0391     309.1723   1413.19458     354.0391     309.1723
   1413.17932     352.1834     307.3942   1413.17932     352.1834     307.3942
   1413.16406     350.3792     305.8819   1413.16406     350.3792     305.8819
   1413.14880     348.1492     305.1786   1413.14880     348.1492     305.1786
   1413.13354     346.3138     303.9552   1413.13354     346.3138     303.9552
   1413.11829     344.3998     302.5183   1413.11829     344.3998     302.5183
   1413.10303     342.6184     301.0076   1413.10303     342.6184     301.0076
   1413.08777     340.6820     299.9376   1413.08777     340.6820     299.9376
   1413.07251     339.3697     298.6693   1413.07251     339.3697     298.6693
   1413.05725     336.6556     297.2853   1413.05725     336.6556     297.2853
   1413.04199     335.0739     296.1761   1413.04199     335.0739     296.1761
   1413.02673     333.1639     294.9210   1413.02673     333.1639     294.9210
   1413.01147     331.3545     293.6549   1413.01147     331.3545     293.6549
   1412.99622     330.1024     292.1849   1412.99622     330.1024     292.1849
   1412.98096     328.2814     292.0862   1412.98096     328.2814     292.0862
   1412.96570     327.0880     290.1927   1412.96570     327.0880     290.1927
   1412.95044     325.9582     288.9810   1412.95044     325.9582     288.9810
   1412.93518     323.6393     288.3507   1412.93518     323.6393     288.3507
   1412.91992     322.4655     287.2861   1412.91992     322.4655     287.2861
   1412.90466     320.9605     286.6848   1412.90466     320.9605     286.6848
   1412.88940     319.5230     285.8824   1412.88940     319.5230     285.8824
   1412.87415     317.9273     284.5797   1412.87415     317.9273     284.5797
   1412.85889     316.6346     283.6254   1412.85889     316.6346     283.6254
   1412.84363     314.7983     282.6371   1412.84363     314.7983     282.6371
   1412.82837     313.5305     281.5981   1412.82837     313.5305     281.5981
   1412.81311     312.9059     281.0583   1412.81311     312.9059     281.0583
   1412.79785     310.9261     280.4397   1412.79785     310.9261     280.4397
   1412.78259     310.2835     280.0068   1412.78259     310.2835     280.0068
   1412.76733     309.0516     278.7529   1412.76733     309.0516     278.7529
   1412.75208     307.6583     278.6291   1412.75208     307.6583     278.6291
   1412.73682     306.2706     277.7390   1412.73682     306.2706     277.7390
   1412.72156     305.5667     277.2695   1412.72156     305.5667     277.2695
   1412.70630     304.3861     276.6018   1412.70630     304.3861     276.6018
   1412.69104     303.3951     275.9029   1412.69104     303.3951     275.9029
   1412.67578     302.6086     275.4577   1412.67578     302.6086     275.4577
   1412.66052     301.4565     274.9420   1412.66052     301.4565     274.9420
   1412.64526     301.2431     274.8488   1412.64526     301.2431     274.8488
   1412.63000     300.2688     274.1286   1412.63000     300.2688     274.1286
   1412.61475     298.8757     273.9572   1412.61475     298.8757     273.9572
   1412.59949     298.1394     273.6643   1412.59949     298.1394     273.6643
   1412.58423     297.2859     273.4696   1412.58423     297.2859     273.4696
   1412.56897     297.3750     273.2036   1412.56897     297.3750     273.2036
   1412.55371     297.2272     273.3804   1412.55371     297.2272     273.3804
   1412.53845     295.7408     273.3228   1412.53845     295.7408     273.3228
   1412.52319     294.9614     272.7256   1412.52319     294.9614     272.7256
   1412.50793     294.9150     272.6996   1412.50793     294.9150     272.6996
   1412.49268     294.2648     272.6133   1412.49268     294.2648     272.6133
   1412.47742     293.8942     272.6197   1412.47742     293.8942     272.6197
   1412.46216     294.3179     272.6481   1412.46216     294.3179     272.6481
   1412.44690     293.6516     272.4475   1412.44690     293.6516     272.4475
   1412.43164     292.8451     273.0057   1412.43164     292.8451     273.0057
   1412.41638     292.6360     273.0094   1412.41638     292.6360     273.0094
   1412.40112     292.5967     273.6270   1412.40112     292.5967     273.6270
   1412.38586     292.5865     273.5097   1412.38586     292.5865     273.5097
   1412.37061     292.4935     273.9103   1412.37061     292.4935     273.9103
   1412.35535     292.1630     274.2298   1412.35535     292.1630     274.2298
   1412.34009     292.9035     274.6470   1412.34009     292.9035     274.6470
   1412.32483     292.2253     275.2234   1412.32483     292.2253     275.2234
   1412.30957     292.7894     275.2165   1412.30957     292.7894     275.2165
   1412.29431     292.5844     275.7198   1412.29431     292.5844     275.7198
   1412.27905     292.7779     276.3284   1412.27905     292.7779     276.3284
   1412.26379     293.8809     277.0498   1412.26379     293.8809     277.0498
   1412.24854     293.8468     277.5932   1412.24854     293.8468     277.5932
   1412.23328     294.5448     277.9503   1412.23328     294.5448     277.9503
   1412.21802     294.5451     278.4629   1412.21802     294.5451     278.4629
   1412.20276     294.9416     279.4860   1412.20276     294.9416     279.4860