#     FILENAME=!Skynet_57528_lach-cc-189_20583_21012.cyb.fits
#     BASENAME=Skynet_57528_lach-cc-189_20583_21012
#     SRC_NAME=lach-cc-189
#     OBSERVER=ccmadison16_9505
#     DATE_OBS=2016-05-20T18:58:17.620
#        OBSID=20583
#      SCANNUM=21012
#          MJD=57528.7915
#          UTC=68386
#     SCANTYPE=track
#     DATAMODE=HIRES
#     TUNEFREQ=1420.0000
# Actual_FREQ1=1420.0000
# Actual_FREQ2=1420.0000
#    LO1Tuning=6870.000
#     RFFILTER=1355_1435
#        OBSBW=-15.6250
#        NCHAN=1024 
#        FOCUS=37.0709
#           RA=06:05:38.55
#          DEC=21:09:43.76
#      RA(hrs)=6.094000
#     DEC(deg)=21.162200
#    AZIM(deg)=155.352
#    ELEV(deg)=71.267
#     IFattens=11.00, 9.00
#      WARNING=None
#    TCAL_XL1=7.9635
#    TCAL_YR1=9.1340
#    TCAL_XL2=7.9635
#    TCAL_YR2=9.1340
#     TRX_XL1=11.7060
#     TRX_YR1=11.7060
#     TRX_XL2=11.7060
#     TRX_YR2=11.7060
#        TAVE=1.0000
#Freq1(MHz)          XL1          YR1  Freq2(MHz)          XL2          YR2 

   1427.81250     386.5476     277.5576   1427.81250     386.5476     277.5576
   1427.79724     387.5440     278.7800   1427.79724     387.5440     278.7800
   1427.78198     388.8776     279.6109   1427.78198     388.8776     279.6109
   1427.76672     389.3562     280.1964   1427.76672     389.3562     280.1964
   1427.75146     390.2110     281.6380   1427.75146     390.2110     281.6380
   1427.73621     391.1678     283.1459   1427.73621     391.1678     283.1459
   1427.72095     391.7733     284.0980   1427.72095     391.7733     284.0980
   1427.70569     392.8517     284.7317   1427.70569     392.8517     284.7317
   1427.69043     394.0204     286.2082   1427.69043     394.0204     286.2082
   1427.67517     395.2133     287.2396   1427.67517     395.2133     287.2396
   1427.65991     395.7283     288.9961   1427.65991     395.7283     288.9961
   1427.64465     397.6331     289.8360   1427.64465     397.6331     289.8360
   1427.62939     397.8915     291.9192   1427.62939     397.8915     291.9192
   1427.61414     399.9918     292.6768   1427.61414     399.9918     292.6768
   1427.59888     400.7647     294.1005   1427.59888     400.7647     294.1005
   1427.58362     402.3085     295.0966   1427.58362     402.3085     295.0966
   1427.56836     403.7477     296.6034   1427.56836     403.7477     296.6034
   1427.55310     404.9535     297.9221   1427.55310     404.9535     297.9221
   1427.53784     407.0311     299.3210   1427.53784     407.0311     299.3210
   1427.52258     408.3849     301.0150   1427.52258     408.3849     301.0150
   1427.50732     410.1160     302.3876   1427.50732     410.1160     302.3876
   1427.49207     411.3800     304.0112   1427.49207     411.3800     304.0112
   1427.47681     413.3366     305.1927   1427.47681     413.3366     305.1927
   1427.46155     415.8958     306.9790   1427.46155     415.8958     306.9790
   1427.44629     417.1228     308.0841   1427.44629     417.1228     308.0841
   1427.43103     419.0601     310.1246   1427.43103     419.0601     310.1246
   1427.41577     421.0378     311.0791   1427.41577     421.0378     311.0791
   1427.40051     422.6307     313.3026   1427.40051     422.6307     313.3026
   1427.38525     424.2299     314.8058   1427.38525     424.2299     314.8058
   1427.37000     426.1951     316.0872   1427.37000     426.1951     316.0872
   1427.35474     429.1502     318.0313   1427.35474     429.1502     318.0313
   1427.33948     430.5406     318.7480   1427.33948     430.5406     318.7480
   1427.32422     432.8363     321.1253   1427.32422     432.8363     321.1253
   1427.30896     435.5208     322.7175   1427.30896     435.5208     322.7175
   1427.29370     437.1453     323.7515   1427.29370     437.1453     323.7515
   1427.27844     440.2671     326.2907   1427.27844     440.2671     326.2907
   1427.26318     441.9276     328.2416   1427.26318     441.9276     328.2416
   1427.24792     444.9868     329.7993   1427.24792     444.9868     329.7993
   1427.23267     447.3128     331.4305   1427.23267     447.3128     331.4305
   1427.21741     449.7776     332.8188   1427.21741     449.7776     332.8188
   1427.20215     451.9751     335.1542   1427.20215     451.9751     335.1542
   1427.18689     453.9819     336.8099   1427.18689     453.9819     336.8099
   1427.17163     457.2508     338.5666   1427.17163     457.2508     338.5666
   1427.15637     459.2717     340.2733   1427.15637     459.2717     340.2733
   1427.14111     461.1791     341.7476   1427.14111     461.1791     341.7476
   1427.12585     464.5624     343.8350   1427.12585     464.5624     343.8350
   1427.11060     466.9620     345.5211   1427.11060     466.9620     345.5211
   1427.09534     470.1144     346.7339   1427.09534     470.1144     346.7339
   1427.08008     473.3285     349.0445   1427.08008     473.3285     349.0445
   1427.06482     475.4789     350.6659   1427.06482     475.4789     350.6659
   1427.04956     477.9138     352.4574   1427.04956     477.9138     352.4574
   1427.03430     481.6434     354.1786   1427.03430     481.6434     354.1786
   1427.01904     484.4909     355.9816   1427.01904     484.4909     355.9816
   1427.00378     486.5407     357.8927   1427.00378     486.5407     357.8927
   1426.98853     490.1094     359.2787   1426.98853     490.1094     359.2787
   1426.97327     492.5895     361.4866   1426.97327     492.5895     361.4866
   1426.95801     495.1725     362.5417   1426.95801     495.1725     362.5417
   1426.94275     499.0544     364.7775   1426.94275     499.0544     364.7775
   1426.92749     501.4489     366.1207   1426.92749     501.4489     366.1207
   1426.91223     504.9598     368.9683   1426.91223     504.9598     368.9683
   1426.89697     508.0363     370.3438   1426.89697     508.0363     370.3438
   1426.88171     511.3844     372.1149   1426.88171     511.3844     372.1149
   1426.86646     514.2731     373.9752   1426.86646     514.2731     373.9752
   1426.85120     517.0885     375.3437   1426.85120     517.0885     375.3437
   1426.83594     519.9808     377.5944   1426.83594     519.9808     377.5944
   1426.82068     522.8567     379.5157   1426.82068     522.8567     379.5157
   1426.80542     527.0211     381.0759   1426.80542     527.0211     381.0759
   1426.79016     529.9763     382.5337   1426.79016     529.9763     382.5337
   1426.77490     532.7372     384.4343   1426.77490     532.7372     384.4343
   1426.75964     536.2582     386.9572   1426.75964     536.2582     386.9572
   1426.74438     539.5042     388.0874   1426.74438     539.5042     388.0874
   1426.72913     541.6417     389.8567   1426.72913     541.6417     389.8567
   1426.71387     544.8362     391.8275   1426.71387     544.8362     391.8275
   1426.69861     548.6397     393.5206   1426.69861     548.6397     393.5206
   1426.68335     550.6730     394.5178   1426.68335     550.6730     394.5178
   1426.66809     554.9040     396.4881   1426.66809     554.9040     396.4881
   1426.65283     558.6157     398.5945   1426.65283     558.6157     398.5945
   1426.63757     561.6628     400.4203   1426.63757     561.6628     400.4203
   1426.62231     566.8383     403.5555   1426.62231     566.8383     403.5555
   1426.60706     568.0220     403.6952   1426.60706     568.0220     403.6952
   1426.59180     570.7440     405.3080   1426.59180     570.7440     405.3080
   1426.57654     574.2045     406.8033   1426.57654     574.2045     406.8033
   1426.56128     577.7375     408.1634   1426.56128     577.7375     408.1634
   1426.54602     580.8056     410.0902   1426.54602     580.8056     410.0902
   1426.53076     583.6520     411.8262   1426.53076     583.6520     411.8262
   1426.51550     586.7370     413.3849   1426.51550     586.7370     413.3849
   1426.50024     591.3723     415.4186   1426.50024     591.3723     415.4186
   1426.48499     592.8914     416.6971   1426.48499     592.8914     416.6971
   1426.46973     597.6200     418.9261   1426.46973     597.6200     418.9261
   1426.45447     600.7393     420.4603   1426.45447     600.7393     420.4603
   1426.43921     603.3772     421.8940   1426.43921     603.3772     421.8940
   1426.42395     607.3113     423.9079   1426.42395     607.3113     423.9079
   1426.40869     609.7768     425.6407   1426.40869     609.7768     425.6407
   1426.39343     613.0707     427.0908   1426.39343     613.0707     427.0908
   1426.37817     614.8431     427.7026   1426.37817     614.8431     427.7026
   1426.36292     618.8862     430.2802   1426.36292     618.8862     430.2802
   1426.34766     622.2520     430.9450   1426.34766     622.2520     430.9450
   1426.33240     626.2591     432.7654   1426.33240     626.2591     432.7654
   1426.31714     627.7314     434.1805   1426.31714     627.7314     434.1805
   1426.30188     632.1473     436.3571   1426.30188     632.1473     436.3571
   1426.28662     634.6697     436.3856   1426.28662     634.6697     436.3856
   1426.27136     637.6120     438.6038   1426.27136     637.6120     438.6038
   1426.25610     640.6193     440.8023   1426.25610     640.6193     440.8023
   1426.24084     644.6132     441.9314   1426.24084     644.6132     441.9314
   1426.22559     645.4359     442.9539   1426.22559     645.4359     442.9539
   1426.21033     651.0437     443.6791   1426.21033     651.0437     443.6791
   1426.19507     653.1400     445.3693   1426.19507     653.1400     445.3693
   1426.17981     655.5016     446.6673   1426.17981     655.5016     446.6673
   1426.16455     659.2172     447.8597   1426.16455     659.2172     447.8597
   1426.14929     661.1376     450.3544   1426.14929     661.1376     450.3544
   1426.13403     665.2795     451.6558   1426.13403     665.2795     451.6558
   1426.11877     666.6285     453.1079   1426.11877     666.6285     453.1079
   1426.10352     669.3952     453.9865   1426.10352     669.3952     453.9865
   1426.08826     672.4043     455.1177   1426.08826     672.4043     455.1177
   1426.07300     676.5801     456.7005   1426.07300     676.5801     456.7005
   1426.05774     678.1440     458.6000   1426.05774     678.1440     458.6000
   1426.04248     681.2408     458.7011   1426.04248     681.2408     458.7011
   1426.02722     683.5983     460.0532   1426.02722     683.5983     460.0532
   1426.01196     685.8336     461.3594   1426.01196     685.8336     461.3594
   1425.99670     688.5070     463.2655   1425.99670     688.5070     463.2655
   1425.98145     691.4135     464.5039   1425.98145     691.4135     464.5039
   1425.96619     694.3594     465.2648   1425.96619     694.3594     465.2648
   1425.95093     698.1631     467.2813   1425.95093     698.1631     467.2813
   1425.93567     699.5135     467.5995   1425.93567     699.5135     467.5995
   1425.92041     702.4332     468.7134   1425.92041     702.4332     468.7134
   1425.90515     703.9697     470.2050   1425.90515     703.9697     470.2050
   1425.88989     707.3928     471.9641   1425.88989     707.3928     471.9641
   1425.87463     709.3894     472.5687   1425.87463     709.3894     472.5687
   1425.85938     710.9581     473.4436   1425.85938     710.9581     473.4436
   1425.84412     713.1038     474.5948   1425.84412     713.1038     474.5948
   1425.82886     715.6021     475.7050   1425.82886     715.6021     475.7050
   1425.81360     719.3011     476.8747   1425.81360     719.3011     476.8747
   1425.79834     721.4263     478.0652   1425.79834     721.4263     478.0652
   1425.78308     723.7418     479.0605   1425.78308     723.7418     479.0605
   1425.76782     724.5864     480.9500   1425.76782     724.5864     480.9500
   1425.75256     727.1931     480.8848   1425.75256     727.1931     480.8848
   1425.73730     729.8052     481.8238   1425.73730     729.8052     481.8238
   1425.72205     732.3702     483.1056   1425.72205     732.3702     483.1056
   1425.70679     734.6491     483.4211   1425.70679     734.6491     483.4211
   1425.69153     736.4551     484.9466   1425.69153     736.4551     484.9466
   1425.67627     738.7190     485.4260   1425.67627     738.7190     485.4260
   1425.66101     739.3008     486.7867   1425.66101     739.3008     486.7867
   1425.64575     742.0458     487.7368   1425.64575     742.0458     487.7368
   1425.63049     743.0047     488.3121   1425.63049     743.0047     488.3121
   1425.61523     744.9869     488.6469   1425.61523     744.9869     488.6469
   1425.59998     747.3006     489.5350   1425.59998     747.3006     489.5350
   1425.58472     749.2155     490.9412   1425.58472     749.2155     490.9412
   1425.56946     750.8721     491.2091   1425.56946     750.8721     491.2091
   1425.55420     751.1521     492.7319   1425.55420     751.1521     492.7319
   1425.53894     754.8790     493.2832   1425.53894     754.8790     493.2832
   1425.52368     756.1525     494.5152   1425.52368     756.1525     494.5152
   1425.50842     757.0890     494.4266   1425.50842     757.0890     494.4266
   1425.49316     759.7521     495.7908   1425.49316     759.7521     495.7908
   1425.47791     762.4963     495.9622   1425.47791     762.4963     495.9622
   1425.46265     761.4664     496.1555   1425.46265     761.4664     496.1555
   1425.44739     764.1605     497.2113   1425.44739     764.1605     497.2113
   1425.43213     765.5187     498.3147   1425.43213     765.5187     498.3147
   1425.41687     766.2953     499.4906   1425.41687     766.2953     499.4906
   1425.40161     768.4913     499.5724   1425.40161     768.4913     499.5724
   1425.38635     770.3526     499.9872   1425.38635     770.3526     499.9872
   1425.37109     771.8835     501.1731   1425.37109     771.8835     501.1731
   1425.35583     773.7083     500.6039   1425.35583     773.7083     500.6039
   1425.34058     774.8088     502.5154   1425.34058     774.8088     502.5154
   1425.32532     775.1920     502.4854   1425.32532     775.1920     502.4854
   1425.31006     777.0259     503.5151   1425.31006     777.0259     503.5151
   1425.29480     777.5200     502.8702   1425.29480     777.5200     502.8702
   1425.27954     779.0627     504.3921   1425.27954     779.0627     504.3921
   1425.26428     779.0820     504.5927   1425.26428     779.0820     504.5927
   1425.24902     780.9106     505.4664   1425.24902     780.9106     505.4664
   1425.23376     781.6135     506.2362   1425.23376     781.6135     506.2362
   1425.21851     783.1727     506.6906   1425.21851     783.1727     506.6906
   1425.20325     782.7385     506.7733   1425.20325     782.7385     506.7733
   1425.18799     785.4829     507.2348   1425.18799     785.4829     507.2348
   1425.17273     784.1788     507.5411   1425.17273     784.1788     507.5411
   1425.15747     785.6924     507.6977   1425.15747     785.6924     507.6977
   1425.14221     786.8067     508.5826   1425.14221     786.8067     508.5826
   1425.12695     788.2400     508.9790   1425.12695     788.2400     508.9790
   1425.11169     787.3895     509.3032   1425.11169     787.3895     509.3032
   1425.09644     788.4883     508.9038   1425.09644     788.4883     508.9038
   1425.08118     789.6935     510.4112   1425.08118     789.6935     510.4112
   1425.06592     790.9334     510.3337   1425.06592     790.9334     510.3337
   1425.05066     792.5070     510.3805   1425.05066     792.5070     510.3805
   1425.03540     792.1431     510.3143   1425.03540     792.1431     510.3143
   1425.02014     792.8928     510.7916   1425.02014     792.8928     510.7916
   1425.00488     793.3224     511.6722   1425.00488     793.3224     511.6722
   1424.98962     793.7938     512.1021   1424.98962     793.7938     512.1021
   1424.97437     794.0765     512.2808   1424.97437     794.0765     512.2808
   1424.95911     794.3331     512.6370   1424.95911     794.3331     512.6370
   1424.94385     795.7525     512.1292   1424.94385     795.7525     512.1292
   1424.92859     796.3931     512.4640   1424.92859     796.3931     512.4640
   1424.91333     795.4149     512.9017   1424.91333     795.4149     512.9017
   1424.89807     796.6130     513.8018   1424.89807     796.6130     513.8018
   1424.88281     797.3271     513.1999   1424.88281     797.3271     513.1999
   1424.86755     798.4606     513.1041   1424.86755     798.4606     513.1041
   1424.85229     797.1918     514.7603   1424.85229     797.1918     514.7603
   1424.83704     798.0052     513.4722   1424.83704     798.0052     513.4722
   1424.82178     798.5826     513.7624   1424.82178     798.5826     513.7624
   1424.80652     798.9734     513.4326   1424.80652     798.9734     513.4326
   1424.79126     798.5853     514.6450   1424.79126     798.5853     514.6450
   1424.77600     798.8082     514.6548   1424.77600     798.8082     514.6548
   1424.76074     799.1120     514.5023   1424.76074     799.1120     514.5023
   1424.74548     799.8203     515.0422   1424.74548     799.8203     515.0422
   1424.73022     799.7354     513.9110   1424.73022     799.7354     513.9110
   1424.71497     800.9529     514.6287   1424.71497     800.9529     514.6287
   1424.69971     799.7428     513.6611   1424.69971     799.7428     513.6611
   1424.68445     799.7732     514.7516   1424.68445     799.7732     514.7516
   1424.66919     801.2540     514.5804   1424.66919     801.2540     514.5804
   1424.65393     800.5197     514.3781   1424.65393     800.5197     514.3781
   1424.63867     798.5331     514.8893   1424.63867     798.5331     514.8893
   1424.62341     799.8099     514.3746   1424.62341     799.8099     514.3746
   1424.60815     799.4719     514.6442   1424.60815     799.4719     514.6442
   1424.59290     800.2502     514.2650   1424.59290     800.2502     514.2650
   1424.57764     799.1105     514.5821   1424.57764     799.1105     514.5821
   1424.56238     800.2776     513.9016   1424.56238     800.2776     513.9016
   1424.54712     800.0778     514.5873   1424.54712     800.0778     514.5873
   1424.53186     797.1375     514.2296   1424.53186     797.1375     514.2296
   1424.51660     800.4864     514.3412   1424.51660     800.4864     514.3412
   1424.50134     798.7377     514.1503   1424.50134     798.7377     514.1503
   1424.48608     798.9918     513.7195   1424.48608     798.9918     513.7195
   1424.47083     796.9716     513.2352   1424.47083     796.9716     513.2352
   1424.45557     798.5357     513.6016   1424.45557     798.5357     513.6016
   1424.44031     798.4052     513.1866   1424.44031     798.4052     513.1866
   1424.42505     798.6229     513.6959   1424.42505     798.6229     513.6959
   1424.40979     798.1299     513.5762   1424.40979     798.1299     513.5762
   1424.39453     798.7149     513.0052   1424.39453     798.7149     513.0052
   1424.37927     798.5370     511.5215   1424.37927     798.5370     511.5215
   1424.36401     797.0189     512.4091   1424.36401     797.0189     512.4091
   1424.34875     797.2737     512.0856   1424.34875     797.2737     512.0856
   1424.33350     796.1776     511.9354   1424.33350     796.1776     511.9354
   1424.31824     795.0450     511.1509   1424.31824     795.0450     511.1509
   1424.30298     795.9371     511.6724   1424.30298     795.9371     511.6724
   1424.28772     795.3545     511.3438   1424.28772     795.3545     511.3438
   1424.27246     793.7430     511.3702   1424.27246     793.7430     511.3702
   1424.25720     794.5471     510.2417   1424.25720     794.5471     510.2417
   1424.24194     794.3696     510.1058   1424.24194     794.3696     510.1058
   1424.22668     793.2271     510.2785   1424.22668     793.2271     510.2785
   1424.21143     792.1402     509.7171   1424.21143     792.1402     509.7171
   1424.19617     792.6916     509.4448   1424.19617     792.6916     509.4448
   1424.18091     791.2324     508.3769   1424.18091     791.2324     508.3769
   1424.16565     793.2722     509.6263   1424.16565     793.2722     509.6263
   1424.15039     791.4356     508.6375   1424.15039     791.4356     508.6375
   1424.13513     791.1526     508.3020   1424.13513     791.1526     508.3020
   1424.11987     789.9397     507.5219   1424.11987     789.9397     507.5219
   1424.10461     790.6789     507.0380   1424.10461     790.6789     507.0380
   1424.08936     790.4474     507.3130   1424.08936     790.4474     507.3130
   1424.07410     789.0026     506.9080   1424.07410     789.0026     506.9080
   1424.05884     788.6606     506.3558   1424.05884     788.6606     506.3558
   1424.04358     787.6697     506.1812   1424.04358     787.6697     506.1812
   1424.02832     787.4374     504.5161   1424.02832     787.4374     504.5161
   1424.01306     787.9567     504.3624   1424.01306     787.9567     504.3624
   1423.99780     787.7422     505.6369   1423.99780     787.7422     505.6369
   1423.98254     787.2220     505.5929   1423.98254     787.2220     505.5929
   1423.96729     785.6483     504.8517   1423.96729     785.6483     504.8517
   1423.95203     785.2905     504.1183   1423.95203     785.2905     504.1183
   1423.93677     785.5041     502.7177   1423.93677     785.5041     502.7177
   1423.92151     784.6290     502.8448   1423.92151     784.6290     502.8448
   1423.90625     783.3263     502.7008   1423.90625     783.3263     502.7008
   1423.89099     783.0613     501.8406   1423.89099     783.0613     501.8406
   1423.87573     783.4632     502.5007   1423.87573     783.4632     502.5007
   1423.86047     782.1160     501.3010   1423.86047     782.1160     501.3010
   1423.84521     781.6381     500.4455   1423.84521     781.6381     500.4455
   1423.82996     781.4163     500.0973   1423.82996     781.4163     500.0973
   1423.81470     780.5101     499.1718   1423.81470     780.5101     499.1718
   1423.79944     780.3269     499.2875   1423.79944     780.3269     499.2875
   1423.78418     778.6751     498.2715   1423.78418     778.6751     498.2715
   1423.76892     779.2101     498.2817   1423.76892     779.2101     498.2817
   1423.75366     777.4319     497.7796   1423.75366     777.4319     497.7796
   1423.73840     777.0394     497.0484   1423.73840     777.0394     497.0484
   1423.72314     778.3784     496.7012   1423.72314     778.3784     496.7012
   1423.70789     777.4102     495.3185   1423.70789     777.4102     495.3185
   1423.69263     776.0806     495.0962   1423.69263     776.0806     495.0962
   1423.67737     777.2667     495.6776   1423.67737     777.2667     495.6776
   1423.66211     775.0759     494.2204   1423.66211     775.0759     494.2204
   1423.64685     774.7367     493.2534   1423.64685     774.7367     493.2534
   1423.63159     774.1667     493.0924   1423.63159     774.1667     493.0924
   1423.61633     773.7427     493.0989   1423.61633     773.7427     493.0989
   1423.60107     772.6930     492.0779   1423.60107     772.6930     492.0779
   1423.58582     771.7108     491.3286   1423.58582     771.7108     491.3286
   1423.57056     771.5779     490.6090   1423.57056     771.5779     490.6090
   1423.55530     771.7455     490.4350   1423.55530     771.7455     490.4350
   1423.54004     770.1709     489.5378   1423.54004     770.1709     489.5378
   1423.52478     770.6721     489.2716   1423.52478     770.6721     489.2716
   1423.50952     768.8275     488.5772   1423.50952     768.8275     488.5772
   1423.49426     769.0983     487.5135   1423.49426     769.0983     487.5135
   1423.47900     768.9538     487.3153   1423.47900     768.9538     487.3153
   1423.46375     768.0330     486.6354   1423.46375     768.0330     486.6354
   1423.44849     767.3766     486.4667   1423.44849     767.3766     486.4667
   1423.43323     765.9217     484.5762   1423.43323     765.9217     484.5762
   1423.41797     766.8596     484.9740   1423.41797     766.8596     484.9740
   1423.40271     766.2218     484.1528   1423.40271     766.2218     484.1528
   1423.38745     765.0876     482.6809   1423.38745     765.0876     482.6809
   1423.37219     764.6476     482.6633   1423.37219     764.6476     482.6633
   1423.35693     764.2397     482.3341   1423.35693     764.2397     482.3341
   1423.34167     763.7354     481.5578   1423.34167     763.7354     481.5578
   1423.32642     764.1246     479.8999   1423.32642     764.1246     479.8999
   1423.31116     763.4377     479.3789   1423.31116     763.4377     479.3789
   1423.29590     762.0250     479.1971   1423.29590     762.0250     479.1971
   1423.28064     761.7855     478.6535   1423.28064     761.7855     478.6535
   1423.26538     761.0440     477.3715   1423.26538     761.0440     477.3715
   1423.25012     761.8820     476.5534   1423.25012     761.8820     476.5534
   1423.23486     760.0383     476.6965   1423.23486     760.0383     476.6965
   1423.21960     759.7584     475.1701   1423.21960     759.7584     475.1701
   1423.20435     758.8797     474.8478   1423.20435     758.8797     474.8478
   1423.18909     759.2981     474.0862   1423.18909     759.2981     474.0862
   1423.17383     758.1762     474.1509   1423.17383     758.1762     474.1509
   1423.15857     757.2906     473.4446   1423.15857     757.2906     473.4446
   1423.14331     758.3090     472.3965   1423.14331     758.3090     472.3965
   1423.12805     757.0898     471.1803   1423.12805     757.0898     471.1803
   1423.11279     756.8399     470.7780   1423.11279     756.8399     470.7780
   1423.09753     755.7594     469.6529   1423.09753     755.7594     469.6529
   1423.08228     755.4876     468.9798   1423.08228     755.4876     468.9798
   1423.06702     755.0691     468.6020   1423.06702     755.0691     468.6020
   1423.05176     754.0307     467.3413   1423.05176     754.0307     467.3413
   1423.03650     753.8721     466.9914   1423.03650     753.8721     466.9914
   1423.02124     753.8549     465.8409   1423.02124     753.8549     465.8409
   1423.00598     752.8386     465.7340   1423.00598     752.8386     465.7340
   1422.99072     752.1036     465.0661   1422.99072     752.1036     465.0661
   1422.97546     752.8893     463.5955   1422.97546     752.8893     463.5955
   1422.96021     753.3772     463.3892   1422.96021     753.3772     463.3892
   1422.94495     751.5053     461.3740   1422.94495     751.5053     461.3740
   1422.92969     751.7884     461.5806   1422.92969     751.7884     461.5806
   1422.91443     750.7263     461.0635   1422.91443     750.7263     461.0635
   1422.89917     749.2881     459.8384   1422.89917     749.2881     459.8384
   1422.88391     751.2957     458.7737   1422.88391     751.2957     458.7737
   1422.86865     749.4440     458.6572   1422.86865     749.4440     458.6572
   1422.85339     750.4169     457.6658   1422.85339     750.4169     457.6658
   1422.83813     749.3540     456.9233   1422.83813     749.3540     456.9233
   1422.82288     749.5704     455.4795   1422.82288     749.5704     455.4795
   1422.80762     747.6318     455.9828   1422.80762     747.6318     455.9828
   1422.79236     747.5784     454.8225   1422.79236     747.5784     454.8225
   1422.77710     746.9243     454.2742   1422.77710     746.9243     454.2742
   1422.76184     748.0911     453.5798   1422.76184     748.0911     453.5798
   1422.74658     745.7874     451.9043   1422.74658     745.7874     451.9043
   1422.73132     746.5726     451.9645   1422.73132     746.5726     451.9645
   1422.71606     746.7303     450.6023   1422.71606     746.7303     450.6023
   1422.70081     746.0368     449.6855   1422.70081     746.0368     449.6855
   1422.68555     745.5914     449.3464   1422.68555     745.5914     449.3464
   1422.67029     746.0241     448.1673   1422.67029     746.0241     448.1673
   1422.65503     745.8990     447.7387   1422.65503     745.8990     447.7387
   1422.63977     744.4371     446.9842   1422.63977     744.4371     446.9842
   1422.62451     745.0187     446.6875   1422.62451     745.0187     446.6875
   1422.60925     745.0914     445.5087   1422.60925     745.0914     445.5087
   1422.59399     744.3051     444.4229   1422.59399     744.3051     444.4229
   1422.57874     742.8146     444.3244   1422.57874     742.8146     444.3244
   1422.56348     743.0433     442.9169   1422.56348     743.0433     442.9169
   1422.54822     742.3294     441.9693   1422.54822     742.3294     441.9693
   1422.53296     743.5904     441.0622   1422.53296     743.5904     441.0622
   1422.51770     742.7411     440.9929   1422.51770     742.7411     440.9929
   1422.50244     741.5656     439.7849   1422.50244     741.5656     439.7849
   1422.48718     742.8367     438.8237   1422.48718     742.8367     438.8237
   1422.47192     742.0257     438.6922   1422.47192     742.0257     438.6922
   1422.45667     740.9573     438.0158   1422.45667     740.9573     438.0158
   1422.44141     740.4105     437.0159   1422.44141     740.4105     437.0159
   1422.42615     739.9313     436.0235   1422.42615     739.9313     436.0235
   1422.41089     740.9080     436.1470   1422.41089     740.9080     436.1470
   1422.39563     740.6818     434.1819   1422.39563     740.6818     434.1819
   1422.38037     740.1020     433.8043   1422.38037     740.1020     433.8043
   1422.36511     739.8804     432.9089   1422.36511     739.8804     432.9089
   1422.34985     739.7870     432.3943   1422.34985     739.7870     432.3943
   1422.33459     738.6462     431.4725   1422.33459     738.6462     431.4725
   1422.31934     739.0056     430.1512   1422.31934     739.0056     430.1512
   1422.30408     740.0624     429.8722   1422.30408     740.0624     429.8722
   1422.28882     737.8608     429.2196   1422.28882     737.8608     429.2196
   1422.27356     738.8906     427.7628   1422.27356     738.8906     427.7628
   1422.25830     738.0167     427.3073   1422.25830     738.0167     427.3073
   1422.24304     738.7522     426.8111   1422.24304     738.7522     426.8111
   1422.22778     738.4262     425.6772   1422.22778     738.4262     425.6772
   1422.21252     737.6018     424.9147   1422.21252     737.6018     424.9147
   1422.19727     738.1904     424.9518   1422.19727     738.1904     424.9518
   1422.18201     737.7422     423.6705   1422.18201     737.7422     423.6705
   1422.16675     735.8896     423.2895   1422.16675     735.8896     423.2895
   1422.15149     737.4645     422.0892   1422.15149     737.4645     422.0892
   1422.13623     737.8106     420.9112   1422.13623     737.8106     420.9112
   1422.12097     736.7668     420.9370   1422.12097     736.7668     420.9370
   1422.10571     736.2339     419.3354   1422.10571     736.2339     419.3354
   1422.09045     736.2301     418.8633   1422.09045     736.2301     418.8633
   1422.07520     736.6065     417.7884   1422.07520     736.6065     417.7884
   1422.05994     734.8146     417.4201   1422.05994     734.8146     417.4201
   1422.04468     735.8402     416.6642   1422.04468     735.8402     416.6642
   1422.02942     735.9275     415.2836   1422.02942     735.9275     415.2836
   1422.01416     734.4918     415.2838   1422.01416     734.4918     415.2838
   1421.99890     735.9001     414.5374   1421.99890     735.9001     414.5374
   1421.98364     736.7929     413.2031   1421.98364     736.7929     413.2031
   1421.96838     734.3409     412.5418   1421.96838     734.3409     412.5418
   1421.95312     734.6786     412.1509   1421.95312     734.6786     412.1509
   1421.93787     735.2334     411.3240   1421.93787     735.2334     411.3240
   1421.92261     735.2804     410.3418   1421.92261     735.2804     410.3418
   1421.90735     733.6163     409.5646   1421.90735     733.6163     409.5646
   1421.89209     734.0552     408.6635   1421.89209     734.0552     408.6635
   1421.87683     733.8890     407.8357   1421.87683     733.8890     407.8357
   1421.86157     734.0101     407.6137   1421.86157     734.0101     407.6137
   1421.84631     732.2202     406.8867   1421.84631     732.2202     406.8867
   1421.83105     734.1733     405.8122   1421.83105     734.1733     405.8122
   1421.81580     732.8981     404.7615   1421.81580     732.8981     404.7615
   1421.80054     732.7495     404.0694   1421.80054     732.7495     404.0694
   1421.78528     731.7995     403.6732   1421.78528     731.7995     403.6732
   1421.77002     732.6990     402.6472   1421.77002     732.6990     402.6472
   1421.75476     731.7155     401.6794   1421.75476     731.7155     401.6794
   1421.73950     732.1526     400.9579   1421.73950     732.1526     400.9579
   1421.72424     731.4152     400.3758   1421.72424     731.4152     400.3758
   1421.70898     730.6339     399.8026   1421.70898     730.6339     399.8026
   1421.69373     731.4180     398.6814   1421.69373     731.4180     398.6814
   1421.67847     730.5133     398.1546   1421.67847     730.5133     398.1546
   1421.66321     730.3973     397.2606   1421.66321     730.3973     397.2606
   1421.64795     730.5704     396.8235   1421.64795     730.5704     396.8235
   1421.63269     730.4764     395.9162   1421.63269     730.4764     395.9162
   1421.61743     729.7568     395.1197   1421.61743     729.7568     395.1197
   1421.60217     730.5477     394.6863   1421.60217     730.5477     394.6863
   1421.58691     730.6850     393.7082   1421.58691     730.6850     393.7082
   1421.57166     729.1996     392.9500   1421.57166     729.1996     392.9500
   1421.55640     729.0543     392.2284   1421.55640     729.0543     392.2284
   1421.54114     728.9922     391.5515   1421.54114     728.9922     391.5515
   1421.52588     729.3477     390.0043   1421.52588     729.3477     390.0043
   1421.51062     729.6096     389.1503   1421.51062     729.6096     389.1503
   1421.49536     729.5994     389.3027   1421.49536     729.5994     389.3027
   1421.48010     727.9222     387.8622   1421.48010     727.9222     387.8622
   1421.46484     729.2738     387.2161   1421.46484     729.2738     387.2161
   1421.44958     728.2708     387.1883   1421.44958     728.2708     387.1883
   1421.43433     728.9447     386.1721   1421.43433     728.9447     386.1721
   1421.41907     728.2026     385.6433   1421.41907     728.2026     385.6433
   1421.40381     727.6844     384.0254   1421.40381     727.6844     384.0254
   1421.38855     727.0292     384.1661   1421.38855     727.0292     384.1661
   1421.37329     727.2292     383.4958   1421.37329     727.2292     383.4958
   1421.35803     726.5961     382.9352   1421.35803     726.5961     382.9352
   1421.34277     725.8652     381.6573   1421.34277     725.8652     381.6573
   1421.32751     726.9006     381.3800   1421.32751     726.9006     381.3800
   1421.31226     727.0148     380.2851   1421.31226     727.0148     380.2851
   1421.29700     726.2936     380.1088   1421.29700     726.2936     380.1088
   1421.28174     724.9093     379.0739   1421.28174     724.9093     379.0739
   1421.26648     726.3486     378.2549   1421.26648     726.3486     378.2549
   1421.25122     723.7628     376.9626   1421.25122     723.7628     376.9626
   1421.23596     725.9286     377.1360   1421.23596     725.9286     377.1360
   1421.22070     724.8926     376.2628   1421.22070     724.8926     376.2628
   1421.20544     723.1600     374.9368   1421.20544     723.1600     374.9368
   1421.19019     724.4179     374.9224   1421.19019     724.4179     374.9224
   1421.17493     722.8868     373.6161   1421.17493     722.8868     373.6161
   1421.15967     723.9006     372.8094   1421.15967     723.9006     372.8094
   1421.14441     724.2607     372.7535   1421.14441     724.2607     372.7535
   1421.12915     723.7969     371.5948   1421.12915     723.7969     371.5948
   1421.11389     722.1111     371.1136   1421.11389     722.1111     371.1136
   1421.09863     722.2407     370.1434   1421.09863     722.2407     370.1434
   1421.08337     722.6444     369.6779   1421.08337     722.6444     369.6779
   1421.06812     721.7100     369.2793   1421.06812     721.7100     369.2793
   1421.05286     722.2599     368.1510   1421.05286     722.2599     368.1510
   1421.03760     722.0824     367.0795   1421.03760     722.0824     367.0795
   1421.02234     720.7421     367.1237   1421.02234     720.7421     367.1237
   1421.00708     721.8282     366.0883   1421.00708     721.8282     366.0883
   1420.99182     721.3610     365.2512   1420.99182     721.3610     365.2512
   1420.97656     720.5367     364.8498   1420.97656     720.5367     364.8498
   1420.96130     720.2245     364.6084   1420.96130     720.2245     364.6084
   1420.94604     721.0416     363.9341   1420.94604     721.0416     363.9341
   1420.93079     721.1807     362.9065   1420.93079     721.1807     362.9065
   1420.91553     720.5467     362.2234   1420.91553     720.5467     362.2234
   1420.90027     720.4454     361.7778   1420.90027     720.4454     361.7778
   1420.88501     719.1422     361.1225   1420.88501     719.1422     361.1225
   1420.86975     718.9560     361.0972   1420.86975     718.9560     361.0972
   1420.85449     718.9161     360.1121   1420.85449     718.9161     360.1121
   1420.83923     719.2729     359.6972   1420.83923     719.2729     359.6972
   1420.82397     718.0244     358.6259   1420.82397     718.0244     358.6259
   1420.80872     718.1880     358.1185   1420.80872     718.1880     358.1185
   1420.79346     719.1030     357.4788   1420.79346     719.1030     357.4788
   1420.77820     718.9387     357.2243   1420.77820     718.9387     357.2243
   1420.76294     719.1316     356.7497   1420.76294     719.1316     356.7497
   1420.74768     718.7851     355.8185   1420.74768     718.7851     355.8185
   1420.73242     718.5914     355.9284   1420.73242     718.5914     355.9284
   1420.71716     719.1310     354.9851   1420.71716     719.1310     354.9851
   1420.70190     719.0166     354.3266   1420.70190     719.0166     354.3266
   1420.68665     718.8218     354.2102   1420.68665     718.8218     354.2102
   1420.67139     717.9424     353.5053   1420.67139     717.9424     353.5053
   1420.65613     719.0703     352.9481   1420.65613     719.0703     352.9481
   1420.64087     719.5470     352.2855   1420.64087     719.5470     352.2855
   1420.62561     718.3178     351.9674   1420.62561     718.3178     351.9674
   1420.61035     720.0642     351.9189   1420.61035     720.0642     351.9189
   1420.59509     720.0338     351.8403   1420.59509     720.0338     351.8403
   1420.57983     721.4805     352.0177   1420.57983     721.4805     352.0177
   1420.56458     721.5999     352.1169   1420.56458     721.5999     352.1169
   1420.54932     724.7464     351.7446   1420.54932     724.7464     351.7446
   1420.53406     728.2054     352.7658   1420.53406     728.2054     352.7658
   1420.51880     728.1283     352.5538   1420.51880     728.1283     352.5538
   1420.50354     728.8168     353.1094   1420.50354     728.8168     353.1094
   1420.48828     731.9986     354.2701   1420.48828     731.9986     354.2701
   1420.47302     733.0416     354.4456   1420.47302     733.0416     354.4456
   1420.45776     735.8871     355.8284   1420.45776     735.8871     355.8284
   1420.44250     738.9954     356.0254   1420.44250     738.9954     356.0254
   1420.42725     742.9363     357.5193   1420.42725     742.9363     357.5193
   1420.41199     746.9841     359.4538   1420.41199     746.9841     359.4538
   1420.39673     756.3937     362.0192   1420.39673     756.3937     362.0192
   1420.38147     766.8995     367.2006   1420.38147     766.8995     367.2006
   1420.36621     785.4492     375.1314   1420.36621     785.4492     375.1314
   1420.35095     822.2919     391.0045   1420.35095     822.2919     391.0045
   1420.33569     890.8190     422.0220   1420.33569     890.8190     422.0220
   1420.32043    1032.3901     487.3379   1420.32043    1032.3901     487.3379
   1420.30518    1335.3901     626.0758   1420.30518    1335.3901     626.0758
   1420.28992    1908.0085     885.3680   1420.28992    1908.0085     885.3680
   1420.27466    2457.3684    1138.5118   1420.27466    2457.3684    1138.5118
   1420.25940    2832.2664    1307.8730   1420.25940    2832.2664    1307.8730
   1420.24414    2886.2886    1329.3551   1420.24414    2886.2886    1329.3551
   1420.22888    2725.8513    1256.3253   1420.22888    2725.8513    1256.3253
   1420.21362    2541.7744    1171.0542   1420.21362    2541.7744    1171.0542
   1420.19836    2186.3433    1011.2780   1420.19836    2186.3433    1011.2780
   1420.18311    1687.0732     781.8051   1420.18311    1687.0732     781.8051
   1420.16785    1192.0665     554.9818   1420.16785    1192.0665     554.9818
   1420.15259     922.5975     432.9498   1420.15259     922.5975     432.9498
   1420.13733     818.0771     385.5379   1420.13733     818.0771     385.5379
   1420.12207     771.6202     363.0862   1420.12207     771.6202     363.0862
   1420.10681     747.2260     351.2683   1420.10681     747.2260     351.2683
   1420.09155     731.7383     344.3807   1420.09155     731.7383     344.3807
   1420.07629     723.1548     339.6605   1420.07629     723.1548     339.6605
   1420.06104     718.8151     337.7628   1420.06104     718.8151     337.7628
   1420.04578     715.5494     336.1742   1420.04578     715.5494     336.1742
   1420.03052     713.0842     334.8891   1420.03052     713.0842     334.8891
   1420.01526     712.4637     334.8276   1420.01526     712.4637     334.8276
   1420.00000     712.1458     334.7861   1420.00000     712.1458     334.7861
   1419.98474     711.8282     334.7446   1419.98474     711.8282     334.7446
   1419.96948     709.9460     332.4028   1419.96948     709.9460     332.4028
   1419.95422     708.7431     330.7032   1419.95422     708.7431     330.7032
   1419.93896     708.0466     330.3386   1419.93896     708.0466     330.3386
   1419.92371     706.2732     329.5323   1419.92371     706.2732     329.5323
   1419.90845     706.4780     328.9732   1419.90845     706.4780     328.9732
   1419.89319     706.3988     328.8163   1419.89319     706.3988     328.8163
   1419.87793     706.4000     329.0857   1419.87793     706.4000     329.0857
   1419.86267     705.7943     328.1758   1419.86267     705.7943     328.1758
   1419.84741     705.2251     327.8940   1419.84741     705.2251     327.8940
   1419.83215     705.7682     327.8968   1419.83215     705.7682     327.8968
   1419.81689     704.8217     326.9933   1419.81689     704.8217     326.9933
   1419.80164     704.8051     327.0797   1419.80164     704.8051     327.0797
   1419.78638     705.9976     326.9866   1419.78638     705.9976     326.9866
   1419.77112     704.1773     326.5140   1419.77112     704.1773     326.5140
   1419.75586     704.9946     326.5452   1419.75586     704.9946     326.5452
   1419.74060     704.9780     326.1531   1419.74060     704.9780     326.1531
   1419.72534     706.2106     325.7691   1419.72534     706.2106     325.7691
   1419.71008     706.3612     324.9250   1419.71008     706.3612     324.9250
   1419.69482     704.4601     324.8957   1419.69482     704.4601     324.8957
   1419.67957     706.0873     325.5580   1419.67957     706.0873     325.5580
   1419.66431     705.8326     324.7016   1419.66431     705.8326     324.7016
   1419.64905     704.5561     325.0965   1419.64905     704.5561     325.0965
   1419.63379     706.3320     324.7672   1419.63379     706.3320     324.7672
   1419.61853     706.7815     324.5064   1419.61853     706.7815     324.5064
   1419.60327     705.3785     324.8917   1419.60327     705.3785     324.8917
   1419.58801     706.5416     324.4922   1419.58801     706.5416     324.4922
   1419.57275     705.7641     324.3701   1419.57275     705.7641     324.3701
   1419.55750     706.8698     324.2841   1419.55750     706.8698     324.2841
   1419.54224     706.4084     323.7979   1419.54224     706.4084     323.7979
   1419.52698     706.9999     323.5052   1419.52698     706.9999     323.5052
   1419.51172     706.2779     324.3157   1419.51172     706.2779     324.3157
   1419.49646     706.9634     323.9536   1419.49646     706.9634     323.9536
   1419.48120     707.1919     324.5969   1419.48120     707.1919     324.5969
   1419.46594     707.6735     323.5949   1419.46594     707.6735     323.5949
   1419.45068     708.2025     324.4728   1419.45068     708.2025     324.4728
   1419.43542     708.0179     323.8369   1419.43542     708.0179     323.8369
   1419.42017     709.1777     324.8316   1419.42017     709.1777     324.8316
   1419.40491     709.2633     324.5510   1419.40491     709.2633     324.5510
   1419.38965     708.3683     324.1342   1419.38965     708.3683     324.1342
   1419.37439     709.3029     324.3787   1419.37439     709.3029     324.3787
   1419.35913     709.9534     324.7118   1419.35913     709.9534     324.7118
   1419.34387     710.0500     324.0413   1419.34387     710.0500     324.0413
   1419.32861     710.4101     324.4688   1419.32861     710.4101     324.4688
   1419.31335     709.7971     324.7706   1419.31335     709.7971     324.7706
   1419.29810     711.8948     324.3147   1419.29810     711.8948     324.3147
   1419.28284     710.9999     324.4922   1419.28284     710.9999     324.4922
   1419.26758     713.2767     325.4436   1419.26758     713.2767     325.4436
   1419.25232     712.2412     325.0888   1419.25232     712.2412     325.0888
   1419.23706     712.8712     325.0296   1419.23706     712.8712     325.0296
   1419.22180     713.3773     325.4164   1419.22180     713.3773     325.4164
   1419.20654     713.0719     325.5826   1419.20654     713.0719     325.5826
   1419.19128     713.3889     325.2480   1419.19128     713.3889     325.2480
   1419.17603     714.4583     325.6569   1419.17603     714.4583     325.6569
   1419.16077     715.6470     325.7973   1419.16077     715.6470     325.7973
   1419.14551     714.4561     326.2924   1419.14551     714.4561     326.2924
   1419.13025     715.8156     326.1231   1419.13025     715.8156     326.1231
   1419.11499     715.2927     326.4523   1419.11499     715.2927     326.4523
   1419.09973     715.8945     327.0982   1419.09973     715.8945     327.0982
   1419.08447     716.5518     326.2963   1419.08447     716.5518     326.2963
   1419.06921     718.5449     327.1279   1419.06921     718.5449     327.1279
   1419.05396     717.8557     327.3436   1419.05396     717.8557     327.3436
   1419.03870     719.1011     327.0497   1419.03870     719.1011     327.0497
   1419.02344     717.8367     327.9895   1419.02344     717.8367     327.9895
   1419.00818     718.9964     327.3574   1419.00818     718.9964     327.3574
   1418.99292     718.2465     328.2625   1418.99292     718.2465     328.2625
   1418.97766     719.8286     328.1982   1418.97766     719.8286     328.1982
   1418.96240     720.7533     328.7917   1418.96240     720.7533     328.7917
   1418.94714     720.2036     329.3726   1418.94714     720.2036     329.3726
   1418.93188     720.2042     329.0983   1418.93188     720.2042     329.0983
   1418.91663     723.2775     329.8154   1418.91663     723.2775     329.8154
   1418.90137     724.3076     330.2138   1418.90137     724.3076     330.2138
   1418.88611     722.3990     330.6103   1418.88611     722.3990     330.6103
   1418.87085     723.8305     330.7591   1418.87085     723.8305     330.7591
   1418.85559     724.8623     331.0271   1418.85559     724.8623     331.0271
   1418.84033     725.2452     331.3443   1418.84033     725.2452     331.3443
   1418.82507     726.0809     331.8191   1418.82507     726.0809     331.8191
   1418.80981     726.7018     332.5482   1418.80981     726.7018     332.5482
   1418.79456     727.3160     332.6922   1418.79456     727.3160     332.6922
   1418.77930     727.5251     332.6553   1418.77930     727.5251     332.6553
   1418.76404     729.3002     333.2917   1418.76404     729.3002     333.2917
   1418.74878     728.1210     334.2722   1418.74878     728.1210     334.2722
   1418.73352     729.8354     334.2832   1418.73352     729.8354     334.2832
   1418.71826     730.3705     334.8076   1418.71826     730.3705     334.8076
   1418.70300     729.6055     335.0716   1418.70300     729.6055     335.0716
   1418.68774     730.8062     335.6871   1418.68774     730.8062     335.6871
   1418.67249     732.0055     336.5258   1418.67249     732.0055     336.5258
   1418.65723     732.4484     336.9082   1418.65723     732.4484     336.9082
   1418.64197     732.6373     336.5887   1418.64197     732.6373     336.5887
   1418.62671     733.7586     336.9753   1418.62671     733.7586     336.9753
   1418.61145     735.9211     338.2108   1418.61145     735.9211     338.2108
   1418.59619     735.0579     338.3656   1418.59619     735.0579     338.3656
   1418.58093     736.0112     338.9126   1418.58093     736.0112     338.9126
   1418.56567     737.2950     339.6227   1418.56567     737.2950     339.6227
   1418.55042     737.9396     340.4537   1418.55042     737.9396     340.4537
   1418.53516     738.3082     340.6649   1418.53516     738.3082     340.6649
   1418.51990     739.5520     341.3591   1418.51990     739.5520     341.3591
   1418.50464     740.2695     342.5864   1418.50464     740.2695     342.5864
   1418.48938     740.2434     342.6630   1418.48938     740.2434     342.6630
   1418.47412     740.8077     343.3891   1418.47412     740.8077     343.3891
   1418.45886     743.3268     343.7104   1418.45886     743.3268     343.7104
   1418.44360     743.6048     344.1942   1418.44360     743.6048     344.1942
   1418.42834     743.4440     344.6046   1418.42834     743.4440     344.6046
   1418.41309     743.3123     345.1580   1418.41309     743.3123     345.1580
   1418.39783     745.4823     346.1346   1418.39783     745.4823     346.1346
   1418.38257     746.6003     347.1387   1418.38257     746.6003     347.1387
   1418.36731     747.6007     347.5197   1418.36731     747.6007     347.5197
   1418.35205     747.8565     348.0731   1418.35205     747.8565     348.0731
   1418.33679     749.5704     348.8857   1418.33679     749.5704     348.8857
   1418.32153     748.6030     349.3019   1418.32153     748.6030     349.3019
   1418.30627     749.2787     350.3881   1418.30627     749.2787     350.3881
   1418.29102     750.7260     350.4087   1418.29102     750.7260     350.4087
   1418.27576     751.7570     352.0714   1418.27576     751.7570     352.0714
   1418.26050     753.5919     352.4476   1418.26050     753.5919     352.4476
   1418.24524     754.2347     353.3288   1418.24524     754.2347     353.3288
   1418.22998     755.1776     354.1078   1418.22998     755.1776     354.1078
   1418.21472     755.0480     354.6635   1418.21472     755.0480     354.6635
   1418.19946     756.3818     355.4364   1418.19946     756.3818     355.4364
   1418.18420     755.6979     356.1343   1418.18420     755.6979     356.1343
   1418.16895     758.0352     356.8532   1418.16895     758.0352     356.8532
   1418.15369     758.9379     357.8158   1418.15369     758.9379     357.8158
   1418.13843     759.8085     358.1844   1418.13843     759.8085     358.1844
   1418.12317     760.5424     359.4355   1418.12317     760.5424     359.4355
   1418.10791     760.9811     359.8056   1418.10791     760.9811     359.8056
   1418.09265     761.9994     360.7667   1418.09265     761.9994     360.7667
   1418.07739     762.5341     361.9529   1418.07739     762.5341     361.9529
   1418.06213     764.6865     362.1733   1418.06213     764.6865     362.1733
   1418.04688     764.8575     363.3299   1418.04688     764.8575     363.3299
   1418.03162     766.1377     364.1141   1418.03162     766.1377     364.1141
   1418.01636     767.8118     364.1949   1418.01636     767.8118     364.1949
   1418.00110     768.0045     365.5826   1418.00110     768.0045     365.5826
   1417.98584     768.4200     366.4635   1417.98584     768.4200     366.4635
   1417.97058     770.1943     367.0764   1417.97058     770.1943     367.0764
   1417.95532     770.9980     368.0393   1417.95532     770.9980     368.0393
   1417.94006     771.3659     368.5761   1417.94006     771.3659     368.5761
   1417.92480     772.4896     370.0601   1417.92480     772.4896     370.0601
   1417.90955     772.8573     371.1866   1417.90955     772.8573     371.1866
   1417.89429     774.3633     371.6726   1417.89429     774.3633     371.6726
   1417.87903     775.6616     372.7221   1417.87903     775.6616     372.7221
   1417.86377     776.2512     373.6052   1417.86377     776.2512     373.6052
   1417.84851     777.6083     374.2977   1417.84851     777.6083     374.2977
   1417.83325     778.0944     375.0190   1417.83325     778.0944     375.0190
   1417.81799     778.1481     376.2641   1417.81799     778.1481     376.2641
   1417.80273     779.1924     377.1375   1417.80273     779.1924     377.1375
   1417.78748     779.7339     378.2796   1417.78748     779.7339     378.2796
   1417.77222     780.6990     378.6273   1417.77222     780.6990     378.6273
   1417.75696     783.0627     380.1677   1417.75696     783.0627     380.1677
   1417.74170     783.2803     381.4662   1417.74170     783.2803     381.4662
   1417.72644     783.5504     381.0754   1417.72644     783.5504     381.0754
   1417.71118     785.1205     382.3214   1417.71118     785.1205     382.3214
   1417.69592     785.4768     382.9842   1417.69592     785.4768     382.9842
   1417.68066     787.3070     384.7673   1417.68066     787.3070     384.7673
   1417.66541     786.6709     385.4139   1417.66541     786.6709     385.4139
   1417.65015     787.9897     386.3957   1417.65015     787.9897     386.3957
   1417.63489     789.2830     387.1531   1417.63489     789.2830     387.1531
   1417.61963     790.1984     388.7980   1417.61963     790.1984     388.7980
   1417.60437     791.6618     389.7192   1417.60437     791.6618     389.7192
   1417.58911     790.7560     390.0381   1417.58911     790.7560     390.0381
   1417.57385     793.9688     391.2304   1417.57385     793.9688     391.2304
   1417.55859     793.6604     392.4237   1417.55859     793.6604     392.4237
   1417.54333     795.1505     393.1376   1417.54333     795.1505     393.1376
   1417.52808     795.4626     394.8819   1417.52808     795.4626     394.8819
   1417.51282     796.5644     395.5242   1417.51282     796.5644     395.5242
   1417.49756     796.9410     395.8615   1417.49756     796.9410     395.8615
   1417.48230     798.2252     397.1483   1417.48230     798.2252     397.1483
   1417.46704     798.4759     398.1603   1417.46704     798.4759     398.1603
   1417.45178     799.4568     398.7665   1417.45178     799.4568     398.7665
   1417.43652     800.3577     399.7431   1417.43652     800.3577     399.7431
   1417.42126     801.1080     401.6191   1417.42126     801.1080     401.6191
   1417.40601     802.4780     402.2560   1417.40601     802.4780     402.2560
   1417.39075     802.6877     403.3989   1417.39075     802.6877     403.3989
   1417.37549     802.7902     404.4465   1417.37549     802.7902     404.4465
   1417.36023     804.2813     404.6027   1417.36023     804.2813     404.6027
   1417.34497     804.7814     405.8362   1417.34497     804.7814     405.8362
   1417.32971     803.5007     406.5635   1417.32971     803.5007     406.5635
   1417.31445     806.4688     408.0045   1417.31445     806.4688     408.0045
   1417.29919     806.5425     408.6731   1417.29919     806.5425     408.6731
   1417.28394     807.6918     409.6499   1417.28394     807.6918     409.6499
   1417.26868     808.1586     410.7468   1417.26868     808.1586     410.7468
   1417.25342     809.6813     411.7915   1417.25342     809.6813     411.7915
   1417.23816     808.9506     412.4912   1417.23816     808.9506     412.4912
   1417.22290     811.5630     413.9366   1417.22290     811.5630     413.9366
   1417.20764     810.0306     414.5154   1417.20764     810.0306     414.5154
   1417.19238     812.3295     415.1705   1417.19238     812.3295     415.1705
   1417.17712     810.6877     416.0028   1417.17712     810.6877     416.0028
   1417.16187     812.4574     417.0339   1417.16187     812.4574     417.0339
   1417.14661     812.5980     418.0768   1417.14661     812.5980     418.0768
   1417.13135     812.3378     419.1500   1417.13135     812.3378     419.1500
   1417.11609     814.0181     419.6382   1417.11609     814.0181     419.6382
   1417.10083     814.9333     421.0738   1417.10083     814.9333     421.0738
   1417.08557     815.4897     422.0347   1417.08557     815.4897     422.0347
   1417.07031     814.7021     422.2886   1417.07031     814.7021     422.2886
   1417.05505     815.2736     422.6228   1417.05505     815.2736     422.6228
   1417.03979     817.3935     423.3914   1417.03979     817.3935     423.3914
   1417.02454     816.4858     425.0017   1417.02454     816.4858     425.0017
   1417.00928     816.2420     426.3343   1417.00928     816.2420     426.3343
   1416.99402     818.1517     425.7800   1416.99402     818.1517     425.7800
   1416.97876     816.2992     427.2164   1416.97876     816.2992     427.2164
   1416.96350     817.5054     427.5888   1416.96350     817.5054     427.5888
   1416.94824     816.3127     428.4917   1416.94824     816.3127     428.4917
   1416.93298     817.7159     429.2935   1416.93298     817.7159     429.2935
   1416.91772     818.1061     430.2989   1416.91772     818.1061     430.2989
   1416.90247     819.1694     431.0075   1416.90247     819.1694     431.0075
   1416.88721     819.5856     432.5275   1416.88721     819.5856     432.5275
   1416.87195     820.9059     432.4603   1416.87195     820.9059     432.4603
   1416.85669     820.3310     432.7876   1416.85669     820.3310     432.7876
   1416.84143     820.2403     434.0388   1416.84143     820.2403     434.0388
   1416.82617     820.9914     434.1475   1416.82617     820.9914     434.1475
   1416.81091     821.3929     434.8515   1416.81091     821.3929     434.8515
   1416.79565     821.6953     435.5287   1416.79565     821.6953     435.5287
   1416.78040     821.0138     436.1367   1416.78040     821.0138     436.1367
   1416.76514     820.7948     436.8997   1416.76514     820.7948     436.8997
   1416.74988     821.5696     437.0854   1416.74988     821.5696     437.0854
   1416.73462     820.1954     438.1034   1416.73462     820.1954     438.1034
   1416.71936     820.9636     437.8802   1416.71936     820.9636     437.8802
   1416.70410     821.2987     439.1131   1416.70410     821.2987     439.1131
   1416.68884     822.0995     439.7201   1416.68884     822.0995     439.7201
   1416.67358     821.7419     440.2268   1416.67358     821.7419     440.2268
   1416.65833     820.9243     441.2614   1416.65833     820.9243     441.2614
   1416.64307     819.9400     441.1179   1416.64307     819.9400     441.1179
   1416.62781     820.8035     442.0479   1416.62781     820.8035     442.0479
   1416.61255     820.0925     441.3115   1416.61255     820.0925     441.3115
   1416.59729     821.1433     442.2749   1416.59729     821.1433     442.2749
   1416.58203     819.9294     443.0649   1416.58203     819.9294     443.0649
   1416.56677     820.3234     443.4540   1416.56677     820.3234     443.4540
   1416.55151     820.6161     443.2065   1416.55151     820.6161     443.2065
   1416.53625     820.0428     443.5712   1416.53625     820.0428     443.5712
   1416.52100     819.6202     443.9192   1416.52100     819.6202     443.9192
   1416.50574     819.9585     444.3820   1416.50574     819.9585     444.3820
   1416.49048     820.7923     444.9504   1416.49048     820.7923     444.9504
   1416.47522     818.9188     445.1743   1416.47522     818.9188     445.1743
   1416.45996     818.7870     445.0393   1416.45996     818.7870     445.0393
   1416.44470     818.7444     445.2983   1416.44470     818.7444     445.2983
   1416.42944     817.9420     445.4016   1416.42944     817.9420     445.4016
   1416.41418     818.3310     445.7798   1416.41418     818.3310     445.7798
   1416.39893     818.2989     445.4532   1416.39893     818.2989     445.4532
   1416.38367     816.7739     445.8363   1416.38367     816.7739     445.8363
   1416.36841     816.8401     446.6514   1416.36841     816.8401     446.6514
   1416.35315     818.0218     446.6239   1416.35315     818.0218     446.6239
   1416.33789     816.3486     446.5628   1416.33789     816.3486     446.5628
   1416.32263     815.4509     446.3208   1416.32263     815.4509     446.3208
   1416.30737     815.4831     446.6387   1416.30737     815.4831     446.6387
   1416.29211     814.1934     445.8708   1416.29211     814.1934     445.8708
   1416.27686     813.9639     446.3661   1416.27686     813.9639     446.3661
   1416.26160     813.8057     446.7176   1416.26160     813.8057     446.7176
   1416.24634     812.9809     446.3450   1416.24634     812.9809     446.3450
   1416.23108     811.8265     447.1711   1416.23108     811.8265     447.1711
   1416.21582     810.0066     446.8670   1416.21582     810.0066     446.8670
   1416.20056     811.3310     446.1964   1416.20056     811.3310     446.1964
   1416.18530     811.3183     446.5868   1416.18530     811.3183     446.5868
   1416.17004     810.5906     446.6880   1416.17004     810.5906     446.6880
   1416.15479     810.5941     447.2329   1416.15479     810.5941     447.2329
   1416.13953     808.9400     446.4752   1416.13953     808.9400     446.4752
   1416.12427     807.6913     446.7247   1416.12427     807.6913     446.7247
   1416.10901     807.8678     446.8158   1416.10901     807.8678     446.8158
   1416.09375     806.9360     445.4765   1416.09375     806.9360     445.4765
   1416.07849     805.6094     445.3820   1416.07849     805.6094     445.3820
   1416.06323     805.6271     446.3254   1416.06323     805.6271     446.3254
   1416.04797     804.2366     446.4376   1416.04797     804.2366     446.4376
   1416.03271     803.3120     445.0292   1416.03271     803.3120     445.0292
   1416.01746     804.4906     445.6050   1416.01746     804.4906     445.6050
   1416.00220     802.6761     445.1606   1416.00220     802.6761     445.1606
   1415.98694     801.1947     445.3384   1415.98694     801.1947     445.3384
   1415.97168     800.5999     445.1463   1415.97168     800.5999     445.1463
   1415.95642     800.3497     444.5892   1415.95642     800.3497     444.5892
   1415.94116     799.1075     445.1191   1415.94116     799.1075     445.1191
   1415.92590     799.4893     444.3845   1415.92590     799.4893     444.3845
   1415.91064     799.7905     443.7854   1415.91064     799.7905     443.7854
   1415.89539     797.9914     444.0352   1415.89539     797.9914     444.0352
   1415.88013     796.5568     443.3491   1415.88013     796.5568     443.3491
   1415.86487     794.0886     444.0123   1415.86487     794.0886     444.0123
   1415.84961     795.9021     442.9281   1415.84961     795.9021     442.9281
   1415.83435     794.9374     443.4619   1415.83435     794.9374     443.4619
   1415.81909     793.8199     441.9071   1415.81909     793.8199     441.9071
   1415.80383     793.5923     442.5629   1415.80383     793.5923     442.5629
   1415.78857     790.0113     442.2306   1415.78857     790.0113     442.2306
   1415.77332     790.8499     441.5469   1415.77332     790.8499     441.5469
   1415.75806     790.5118     442.0869   1415.75806     790.5118     442.0869
   1415.74280     788.0875     441.5103   1415.74280     788.0875     441.5103
   1415.72754     787.6493     441.0151   1415.72754     787.6493     441.0151
   1415.71228     786.7216     440.6759   1415.71228     786.7216     440.6759
   1415.69702     784.6244     440.4181   1415.69702     784.6244     440.4181
   1415.68176     785.9100     440.6455   1415.68176     785.9100     440.6455
   1415.66650     783.9528     440.0067   1415.66650     783.9528     440.0067
   1415.65125     782.1946     439.3130   1415.65125     782.1946     439.3130
   1415.63599     781.3174     438.9222   1415.63599     781.3174     438.9222
   1415.62073     780.7307     438.4187   1415.62073     780.7307     438.4187
   1415.60547     780.2805     438.5316   1415.60547     780.2805     438.5316
   1415.59021     780.2983     437.3427   1415.59021     780.2983     437.3427
   1415.57495     777.3721     437.8582   1415.57495     777.3721     437.8582
   1415.55969     778.2036     437.7242   1415.55969     778.2036     437.7242
   1415.54443     776.0466     436.4739   1415.54443     776.0466     436.4739
   1415.52917     775.2827     436.3319   1415.52917     775.2827     436.3319
   1415.51392     773.3822     436.5636   1415.51392     773.3822     436.5636
   1415.49866     773.6149     436.0298   1415.49866     773.6149     436.0298
   1415.48340     772.3256     434.8714   1415.48340     772.3256     434.8714
   1415.46814     770.1964     434.9841   1415.46814     770.1964     434.9841
   1415.45288     769.0784     434.5660   1415.45288     769.0784     434.5660
   1415.43762     768.9837     433.7235   1415.43762     768.9837     433.7235
   1415.42236     767.0770     433.2839   1415.42236     767.0770     433.2839
   1415.40710     765.7765     432.9871   1415.40710     765.7765     432.9871
   1415.39185     765.2296     432.3478   1415.39185     765.2296     432.3478
   1415.37659     763.3779     432.0308   1415.37659     763.3779     432.0308
   1415.36133     761.8404     431.9061   1415.36133     761.8404     431.9061
   1415.34607     761.5664     431.8210   1415.34607     761.5664     431.8210
   1415.33081     760.1945     431.1161   1415.33081     760.1945     431.1161
   1415.31555     759.0782     430.6631   1415.31555     759.0782     430.6631
   1415.30029     758.3874     429.8996   1415.30029     758.3874     429.8996
   1415.28503     757.2383     429.7177   1415.28503     757.2383     429.7177
   1415.26978     755.5977     429.3063   1415.26978     755.5977     429.3063
   1415.25452     754.4016     428.5953   1415.25452     754.4016     428.5953
   1415.23926     752.7719     428.0398   1415.23926     752.7719     428.0398
   1415.22400     752.1242     427.3203   1415.22400     752.1242     427.3203
   1415.20874     750.2200     427.5793   1415.20874     750.2200     427.5793
   1415.19348     749.5370     427.0144   1415.19348     749.5370     427.0144
   1415.17822     748.3702     426.2670   1415.17822     748.3702     426.2670
   1415.16296     747.3978     425.5566   1415.16296     747.3978     425.5566
   1415.14771     744.2068     424.9392   1415.14771     744.2068     424.9392
   1415.13245     744.6246     424.2458   1415.13245     744.6246     424.2458
   1415.11719     743.8290     424.0694   1415.11719     743.8290     424.0694
   1415.10193     740.7245     422.8147   1415.10193     740.7245     422.8147
   1415.08667     740.1713     422.6980   1415.08667     740.1713     422.6980
   1415.07141     738.5849     421.9665   1415.07141     738.5849     421.9665
   1415.05615     736.5630     421.6794   1415.05615     736.5630     421.6794
   1415.04089     735.4821     420.4694   1415.04089     735.4821     420.4694
   1415.02563     733.9344     420.2290   1415.02563     733.9344     420.2290
   1415.01038     731.9019     419.1183   1415.01038     731.9019     419.1183
   1414.99512     731.3351     418.7253   1414.99512     731.3351     418.7253
   1414.97986     729.3292     418.7346   1414.97986     729.3292     418.7346
   1414.96460     727.8369     417.5437   1414.96460     727.8369     417.5437
   1414.94934     726.3631     416.5475   1414.94934     726.3631     416.5475
   1414.93408     725.2966     416.0544   1414.93408     725.2966     416.0544
   1414.91882     722.1981     415.1039   1414.91882     722.1981     415.1039
   1414.90356     721.7916     413.9733   1414.90356     721.7916     413.9733
   1414.88831     718.8525     414.2649   1414.88831     718.8525     414.2649
   1414.87305     717.4921     413.2377   1414.87305     717.4921     413.2377
   1414.85779     716.4540     411.6395   1414.85779     716.4540     411.6395
   1414.84253     713.9799     412.2044   1414.84253     713.9799     412.2044
   1414.82727     713.4285     410.9743   1414.82727     713.4285     410.9743
   1414.81201     712.4797     410.4001   1414.81201     712.4797     410.4001
   1414.79675     710.3360     410.0796   1414.79675     710.3360     410.0796
   1414.78149     708.5753     409.1278   1414.78149     708.5753     409.1278
   1414.76624     705.4884     407.9031   1414.76624     705.4884     407.9031
   1414.75098     703.6775     406.7358   1414.75098     703.6775     406.7358
   1414.73572     702.5101     406.8654   1414.73572     702.5101     406.8654
   1414.72046     699.3365     404.9264   1414.72046     699.3365     404.9264
   1414.70520     698.6382     404.9232   1414.70520     698.6382     404.9232
   1414.68994     696.6204     403.3442   1414.68994     696.6204     403.3442
   1414.67468     694.9781     402.8423   1414.67468     694.9781     402.8423
   1414.65942     693.9116     402.0010   1414.65942     693.9116     402.0010
   1414.64417     690.7690     401.3357   1414.64417     690.7690     401.3357
   1414.62891     689.4927     400.0636   1414.62891     689.4927     400.0636
   1414.61365     686.2179     399.4865   1414.61365     686.2179     399.4865
   1414.59839     685.1551     399.0969   1414.59839     685.1551     399.0969
   1414.58313     682.6977     398.1771   1414.58313     682.6977     398.1771
   1414.56787     680.5114     397.1103   1414.56787     680.5114     397.1103
   1414.55261     679.6990     395.6762   1414.55261     679.6990     395.6762
   1414.53735     678.0923     394.5185   1414.53735     678.0923     394.5185
   1414.52209     675.6368     393.4608   1414.52209     675.6368     393.4608
   1414.50684     673.4512     392.0251   1414.50684     673.4512     392.0251
   1414.49158     671.7889     391.9339   1414.49158     671.7889     391.9339
   1414.47632     668.9990     390.3286   1414.47632     668.9990     390.3286
   1414.46106     665.6570     389.6603   1414.46106     665.6570     389.6603
   1414.44580     665.2175     389.2809   1414.44580     665.2175     389.2809
   1414.43054     662.0796     387.3196   1414.43054     662.0796     387.3196
   1414.41528     660.8812     385.9771   1414.41528     660.8812     385.9771
   1414.40002     657.8564     385.5742   1414.40002     657.8564     385.5742
   1414.38477     656.0576     384.3041   1414.38477     656.0576     384.3041
   1414.36951     653.1261     382.8343   1414.36951     653.1261     382.8343
   1414.35425     651.0678     382.1226   1414.35425     651.0678     382.1226
   1414.33899     648.6412     381.4517   1414.33899     648.6412     381.4517
   1414.32373     646.7347     379.7890   1414.32373     646.7347     379.7890
   1414.30847     644.8187     379.1779   1414.30847     644.8187     379.1779
   1414.29321     641.8776     377.4514   1414.29321     641.8776     377.4514
   1414.27795     639.8143     376.6057   1414.27795     639.8143     376.6057
   1414.26270     637.8097     375.0414   1414.26270     637.8097     375.0414
   1414.24744     634.7579     374.7808   1414.24744     634.7579     374.7808
   1414.23218     632.4377     373.1266   1414.23218     632.4377     373.1266
   1414.21692     630.6481     371.6507   1414.21692     630.6481     371.6507
   1414.20166     627.5928     370.6839   1414.20166     627.5928     370.6839
   1414.18640     625.2576     369.1385   1414.18640     625.2576     369.1385
   1414.17114     622.9472     368.9155   1414.17114     622.9472     368.9155
   1414.15588     620.5643     367.2452   1414.15588     620.5643     367.2452
   1414.14062     619.3236     365.9796   1414.14062     619.3236     365.9796
   1414.12537     615.6056     364.5540   1414.12537     615.6056     364.5540
   1414.11011     613.3635     362.9860   1414.11011     613.3635     362.9860
   1414.09485     610.0532     362.0634   1414.09485     610.0532     362.0634
   1414.07959     608.3233     360.2003   1414.07959     608.3233     360.2003
   1414.06433     604.3262     359.3526   1414.06433     604.3262     359.3526
   1414.04907     603.0537     358.5363   1414.04907     603.0537     358.5363
   1414.03381     599.9069     357.1866   1414.03381     599.9069     357.1866
   1414.01855     597.2104     355.9323   1414.01855     597.2104     355.9323
   1414.00330     610.5900     358.5953   1414.00330     610.5900     358.5953
   1413.98804     594.3129     353.2002   1413.98804     594.3129     353.2002
   1413.97278     589.9164     351.6481   1413.97278     589.9164     351.6481
   1413.95752     586.3766     350.3526   1413.95752     586.3766     350.3526
   1413.94226     585.7968     349.2676   1413.94226     585.7968     349.2676
   1413.92700     582.0162     347.1412   1413.92700     582.0162     347.1412
   1413.91174     578.9149     346.4407   1413.91174     578.9149     346.4407
   1413.89648     577.6470     345.4417   1413.89648     577.6470     345.4417
   1413.88123     573.8182     343.7290   1413.88123     573.8182     343.7290
   1413.86597     570.8789     342.5545   1413.86597     570.8789     342.5545
   1413.85071     568.7922     340.7353   1413.85071     568.7922     340.7353
   1413.83545     565.2374     339.3595   1413.83545     565.2374     339.3595
   1413.82019     562.7672     338.2128   1413.82019     562.7672     338.2128
   1413.80493     560.5779     336.9979   1413.80493     560.5779     336.9979
   1413.78967     557.0674     335.8955   1413.78967     557.0674     335.8955
   1413.77441     554.9745     334.0950   1413.77441     554.9745     334.0950
   1413.75916     552.7007     332.9384   1413.75916     552.7007     332.9384
   1413.74390     550.1509     331.3839   1413.74390     550.1509     331.3839
   1413.72864     546.1041     330.2727   1413.72864     546.1041     330.2727
   1413.71338     543.5890     328.3563   1413.71338     543.5890     328.3563
   1413.69812     541.4135     327.4829   1413.69812     541.4135     327.4829
   1413.68286     538.0457     326.3514   1413.68286     538.0457     326.3514
   1413.66760     535.2355     324.7709   1413.66760     535.2355     324.7709
   1413.65234     533.6387     323.3431   1413.65234     533.6387     323.3431
   1413.63708     530.2465     322.1353   1413.63708     530.2465     322.1353
   1413.62183     527.9092     320.2296   1413.62183     527.9092     320.2296
   1413.60657     524.9669     319.4595   1413.60657     524.9669     319.4595
   1413.59131     522.4984     318.0583   1413.59131     522.4984     318.0583
   1413.57605     519.2749     316.6649   1413.57605     519.2749     316.6649
   1413.56079     517.5247     315.1830   1413.56079     517.5247     315.1830
   1413.54553     513.9671     313.6476   1413.54553     513.9671     313.6476
   1413.53027     511.7657     311.8823   1413.53027     511.7657     311.8823
   1413.51501     508.6421     311.2357   1413.51501     508.6421     311.2357
   1413.49976     505.9242     309.5125   1413.49976     505.9242     309.5125
   1413.48450     503.2420     308.8630   1413.48450     503.2420     308.8630
   1413.46924     500.1706     307.1503   1413.46924     500.1706     307.1503
   1413.45398     497.8561     306.0111   1413.45398     497.8561     306.0111
   1413.43872     495.7767     304.6216   1413.43872     495.7767     304.6216
   1413.42346     492.7432     303.6828   1413.42346     492.7432     303.6828
   1413.40820     489.4305     302.1397   1413.40820     489.4305     302.1397
   1413.39294     487.9098     301.3794   1413.39294     487.9098     301.3794
   1413.37769     484.5487     300.0577   1413.37769     484.5487     300.0577
   1413.36243     482.6073     298.3063   1413.36243     482.6073     298.3063
   1413.34717     480.1636     297.3586   1413.34717     480.1636     297.3586
   1413.33191     477.0226     296.0415   1413.33191     477.0226     296.0415
   1413.31665     475.5538     295.0432   1413.31665     475.5538     295.0432
   1413.30139     472.5239     293.3441   1413.30139     472.5239     293.3441
   1413.28613     470.4668     292.1721   1413.28613     470.4668     292.1721
   1413.27087     467.3022     291.2549   1413.27087     467.3022     291.2549
   1413.25562     464.8263     290.0309   1413.25562     464.8263     290.0309
   1413.24036     462.4407     288.6531   1413.24036     462.4407     288.6531
   1413.22510     460.5144     287.6932   1413.22510     460.5144     287.6932
   1413.20984     458.1646     286.9269   1413.20984     458.1646     286.9269
   1413.19458     455.9148     286.0962   1413.19458     455.9148     286.0962
   1413.17932     453.3068     284.5355   1413.17932     453.3068     284.5355
   1413.16406     450.5754     283.8211   1413.16406     450.5754     283.8211
   1413.14880     448.8489     282.7757   1413.14880     448.8489     282.7757
   1413.13354     446.1160     281.4754   1413.13354     446.1160     281.4754
   1413.11829     443.7036     281.1811   1413.11829     443.7036     281.1811
   1413.10303     442.3570     279.7942   1413.10303     442.3570     279.7942
   1413.08777     439.9747     278.6904   1413.08777     439.9747     278.6904
   1413.07251     437.5378     277.6752   1413.07251     437.5378     277.6752
   1413.05725     434.9067     277.0208   1413.05725     434.9067     277.0208
   1413.04199     433.1040     276.0402   1413.04199     433.1040     276.0402
   1413.02673     431.7812     275.3683   1413.02673     431.7812     275.3683
   1413.01147     428.6568     274.2712   1413.01147     428.6568     274.2712
   1412.99622     427.2818     273.7608   1412.99622     427.2818     273.7608
   1412.98096     425.7330     272.9755   1412.98096     425.7330     272.9755
   1412.96570     422.8081     272.4512   1412.96570     422.8081     272.4512
   1412.95044     421.0497     271.5970   1412.95044     421.0497     271.5970
   1412.93518     419.5249     270.9861   1412.93518     419.5249     270.9861
   1412.91992     417.9221     270.2564   1412.91992     417.9221     270.2564
   1412.90466     415.5253     269.8733   1412.90466     415.5253     269.8733
   1412.88940     414.5300     268.8034   1412.88940     414.5300     268.8034
   1412.87415     412.4486     268.6650   1412.87415     412.4486     268.6650
   1412.85889     411.2388     267.4298   1412.85889     411.2388     267.4298
   1412.84363     410.0407     267.4509   1412.84363     410.0407     267.4509
   1412.82837     408.2642     267.0271   1412.82837     408.2642     267.0271
   1412.81311     406.2466     266.5660   1412.81311     406.2466     266.5660
   1412.79785     405.3914     265.9820   1412.79785     405.3914     265.9820
   1412.78259     404.1825     265.8396   1412.78259     404.1825     265.8396
   1412.76733     402.1568     265.5660   1412.76733     402.1568     265.5660
   1412.75208     401.0540     264.8945   1412.75208     401.0540     264.8945
   1412.73682     400.2082     264.6802   1412.73682     400.2082     264.6802
   1412.72156     398.2379     264.5756   1412.72156     398.2379     264.5756
   1412.70630     397.9721     264.2525   1412.70630     397.9721     264.2525
   1412.69104     396.7516     263.9545   1412.69104     396.7516     263.9545
   1412.67578     395.3754     264.1660   1412.67578     395.3754     264.1660
   1412.66052     394.3757     263.9267   1412.66052     394.3757     263.9267
   1412.64526     393.1563     263.8100   1412.64526     393.1563     263.8100
   1412.63000     392.0088     263.6129   1412.63000     392.0088     263.6129
   1412.61475     391.6088     264.0803   1412.61475     391.6088     264.0803
   1412.59949     390.2946     264.0635   1412.59949     390.2946     264.0635
   1412.58423     389.2733     263.8297   1412.58423     389.2733     263.8297
   1412.56897     388.7708     264.2448   1412.56897     388.7708     264.2448
   1412.55371     388.3400     264.2919   1412.55371     388.3400     264.2919
   1412.53845     387.3636     264.0008   1412.53845     387.3636     264.0008
   1412.52319     386.8099     264.4553   1412.52319     386.8099     264.4553
   1412.50793     385.6834     264.7261   1412.50793     385.6834     264.7261
   1412.49268     385.6223     265.0782   1412.49268     385.6223     265.0782
   1412.47742     384.7420     265.0576   1412.47742     384.7420     265.0576
   1412.46216     384.6609     265.4614   1412.46216     384.6609     265.4614
   1412.44690     384.3301     265.6300   1412.44690     384.3301     265.6300
   1412.43164     383.9806     266.3793   1412.43164     383.9806     266.3793
   1412.41638     383.7556     266.4715   1412.41638     383.7556     266.4715
   1412.40112     383.5591     267.3558   1412.40112     383.5591     267.3558
   1412.38586     383.8476     267.8951   1412.38586     383.8476     267.8951
   1412.37061     384.2214     268.4196   1412.37061     384.2214     268.4196
   1412.35535     383.8550     268.9242   1412.35535     383.8550     268.9242
   1412.34009     384.1622     269.3532   1412.34009     384.1622     269.3532
   1412.32483     384.3363     270.5884   1412.32483     384.3363     270.5884
   1412.30957     384.1856     271.5083   1412.30957     384.1856     271.5083
   1412.29431     384.3595     271.9693   1412.29431     384.3595     271.9693
   1412.27905     383.8574     272.6382   1412.27905     383.8574     272.6382
   1412.26379     384.6859     273.1884   1412.26379     384.6859     273.1884
   1412.24854     385.2032     274.0416   1412.24854     385.2032     274.0416
   1412.23328     385.7342     274.8435   1412.23328     385.7342     274.8435
   1412.21802     386.1552     275.6690   1412.21802     386.1552     275.6690
   1412.20276     385.9647     276.4489   1412.20276     385.9647     276.4489