#     FILENAME=!Skynet_57528_lach-hhg-176_20563_20999.cyb.fits
#     BASENAME=Skynet_57528_lach-hhg-176_20563_20999
#     SRC_NAME=lach-hhg-176
#     OBSERVER=hhgmadison16_9500
#     DATE_OBS=2016-05-20T18:32:07.620
#        OBSID=20563
#      SCANNUM=20999
#          MJD=57528.7734
#          UTC=66816
#     SCANTYPE=track
#     DATAMODE=HIRES
#     TUNEFREQ=1420.0000
# Actual_FREQ1=1420.0000
# Actual_FREQ2=1420.0000
#    LO1Tuning=6870.000
#     RFFILTER=1355_1435
#        OBSBW=-15.6250
#        NCHAN=1024 
#        FOCUS=37.0709
#           RA=05:35:43.12
#          DEC=32:19:39.15
#      RA(hrs)=5.595300
#     DEC(deg)=32.327500
#    AZIM(deg)=133.804
#    ELEV(deg)=81.469
#     IFattens=10.00, 9.00
#      WARNING=None
#    TCAL_XL1=7.9635
#    TCAL_YR1=9.1340
#    TCAL_XL2=7.9635
#    TCAL_YR2=9.1340
#     TRX_XL1=11.7060
#     TRX_YR1=11.7060
#     TRX_XL2=11.7060
#     TRX_YR2=11.7060
#        TAVE=1.0000
#Freq1(MHz)          XL1          YR1  Freq2(MHz)          XL2          YR2 

   1427.81250     379.6288     342.9001   1427.81250     379.6288     342.9001
   1427.79724     379.9961     345.1364   1427.79724     379.9961     345.1364
   1427.78198     380.8931     347.0872   1427.78198     380.8931     347.0872
   1427.76672     381.8036     349.5190   1427.76672     381.8036     349.5190
   1427.75146     382.4164     350.1950   1427.75146     382.4164     350.1950
   1427.73621     382.9695     352.6754   1427.73621     382.9695     352.6754
   1427.72095     383.7351     354.3837   1427.72095     383.7351     354.3837
   1427.70569     384.1273     356.5387   1427.70569     384.1273     356.5387
   1427.69043     385.9441     359.1714   1427.69043     385.9441     359.1714
   1427.67517     387.0143     360.5272   1427.67517     387.0143     360.5272
   1427.65991     388.1174     362.8622   1427.65991     388.1174     362.8622
   1427.64465     388.9426     364.4576   1427.64465     388.9426     364.4576
   1427.62939     390.8296     367.0813   1427.62939     390.8296     367.0813
   1427.61414     390.9544     368.7988   1427.61414     390.9544     368.7988
   1427.59888     392.5755     371.9322   1427.59888     392.5755     371.9322
   1427.58362     393.9095     373.7698   1427.58362     393.9095     373.7698
   1427.56836     396.0297     376.1454   1427.56836     396.0297     376.1454
   1427.55310     397.0150     378.5906   1427.55310     397.0150     378.5906
   1427.53784     399.0461     380.4152   1427.53784     399.0461     380.4152
   1427.52258     400.1561     383.6605   1427.52258     400.1561     383.6605
   1427.50732     402.3841     386.4720   1427.50732     402.3841     386.4720
   1427.49207     403.5559     388.5401   1427.49207     403.5559     388.5401
   1427.47681     405.0103     391.2608   1427.47681     405.0103     391.2608
   1427.46155     407.2643     393.7955   1427.46155     407.2643     393.7955
   1427.44629     408.4384     396.4347   1427.44629     408.4384     396.4347
   1427.43103     410.6370     398.9825   1427.43103     410.6370     398.9825
   1427.41577     413.0447     401.9110   1427.41577     413.0447     401.9110
   1427.40051     414.1564     404.4836   1427.40051     414.1564     404.4836
   1427.38525     416.8825     407.4289   1427.38525     416.8825     407.4289
   1427.37000     418.5516     410.1492   1427.37000     418.5516     410.1492
   1427.35474     420.3367     412.9682   1427.35474     420.3367     412.9682
   1427.33948     422.9182     415.0970   1427.33948     422.9182     415.0970
   1427.32422     424.5400     418.8396   1427.32422     424.5400     418.8396
   1427.30896     427.7713     421.3897   1427.30896     427.7713     421.3897
   1427.29370     428.7039     424.6138   1427.29370     428.7039     424.6138
   1427.27844     431.2668     428.0622   1427.27844     431.2668     428.0622
   1427.26318     433.3335     429.7071   1427.26318     433.3335     429.7071
   1427.24792     436.2867     432.7900   1427.24792     436.2867     432.7900
   1427.23267     439.1055     435.7543   1427.23267     439.1055     435.7543
   1427.21741     440.1316     439.3016   1427.21741     440.1316     439.3016
   1427.20215     443.0609     442.3960   1427.20215     443.0609     442.3960
   1427.18689     445.5125     445.3159   1427.18689     445.5125     445.3159
   1427.17163     447.7458     448.1914   1427.17163     447.7458     448.1914
   1427.15637     451.4431     451.2878   1427.15637     451.4431     451.2878
   1427.14111     453.7504     453.8008   1427.14111     453.7504     453.8008
   1427.12585     456.0246     456.9860   1427.12585     456.0246     456.9860
   1427.11060     458.6924     459.9844   1427.11060     458.6924     459.9844
   1427.09534     460.9586     463.1342   1427.09534     460.9586     463.1342
   1427.08008     464.3481     465.8952   1427.08008     464.3481     465.8952
   1427.06482     466.7165     469.9798   1427.06482     466.7165     469.9798
   1427.04956     468.7907     472.3119   1427.04956     468.7907     472.3119
   1427.03430     472.3546     475.2419   1427.03430     472.3546     475.2419
   1427.01904     474.7157     477.9814   1427.01904     474.7157     477.9814
   1427.00378     477.5728     481.1013   1427.00378     477.5728     481.1013
   1426.98853     480.4503     484.0562   1426.98853     480.4503     484.0562
   1426.97327     483.4825     487.4520   1426.97327     483.4825     487.4520
   1426.95801     486.1950     490.5698   1426.95801     486.1950     490.5698
   1426.94275     489.4210     493.6353   1426.94275     489.4210     493.6353
   1426.92749     492.5166     496.6663   1426.92749     492.5166     496.6663
   1426.91223     495.3856     498.9775   1426.91223     495.3856     498.9775
   1426.89697     498.2264     501.5556   1426.89697     498.2264     501.5556
   1426.88171     501.2396     504.9350   1426.88171     501.2396     504.9350
   1426.86646     504.3086     507.4076   1426.86646     504.3086     507.4076
   1426.85120     507.5750     511.1325   1426.85120     507.5750     511.1325
   1426.83594     509.9819     513.1811   1426.83594     509.9819     513.1811
   1426.82068     512.6593     516.1537   1426.82068     512.6593     516.1537
   1426.80542     516.3342     518.2272   1426.80542     516.3342     518.2272
   1426.79016     518.7450     521.6288   1426.79016     518.7450     521.6288
   1426.77490     522.4018     524.0307   1426.77490     522.4018     524.0307
   1426.75964     525.1587     527.6517   1426.75964     525.1587     527.6517
   1426.74438     528.3399     530.4957   1426.74438     528.3399     530.4957
   1426.72913     531.0821     533.1512   1426.72913     531.0821     533.1512
   1426.71387     535.0480     535.1115   1426.71387     535.0480     535.1115
   1426.69861     537.5591     537.6581   1426.69861     537.5591     537.6581
   1426.68335     539.8386     541.6193   1426.68335     539.8386     541.6193
   1426.66809     543.6356     544.0310   1426.66809     543.6356     544.0310
   1426.65283     546.8102     546.0210   1426.65283     546.8102     546.0210
   1426.63757     550.5238     548.8730   1426.63757     550.5238     548.8730
   1426.62231     557.4376     552.5999   1426.62231     557.4376     552.5999
   1426.60706     556.6838     553.5496   1426.60706     556.6838     553.5496
   1426.59180     559.3896     556.4091   1426.59180     559.3896     556.4091
   1426.57654     562.1560     558.5280   1426.57654     562.1560     558.5280
   1426.56128     566.5486     561.1188   1426.56128     566.5486     561.1188
   1426.54602     569.0600     563.7578   1426.54602     569.0600     563.7578
   1426.53076     571.8706     565.8223   1426.53076     571.8706     565.8223
   1426.51550     574.5092     566.8435   1426.51550     574.5092     566.8435
   1426.50024     577.3801     570.5498   1426.50024     577.3801     570.5498
   1426.48499     581.2518     572.5956   1426.48499     581.2518     572.5956
   1426.46973     584.0220     574.7422   1426.46973     584.0220     574.7422
   1426.45447     587.3650     577.2457   1426.45447     587.3650     577.2457
   1426.43921     590.7034     578.8271   1426.43921     590.7034     578.8271
   1426.42395     593.2191     581.6286   1426.42395     593.2191     581.6286
   1426.40869     597.1506     582.7819   1426.40869     597.1506     582.7819
   1426.39343     600.1940     585.9735   1426.39343     600.1940     585.9735
   1426.37817     603.0078     587.5157   1426.37817     603.0078     587.5157
   1426.36292     604.3941     589.2839   1426.36292     604.3941     589.2839
   1426.34766     607.6959     591.1932   1426.34766     607.6959     591.1932
   1426.33240     610.7745     592.9481   1426.33240     610.7745     592.9481
   1426.31714     614.3965     594.9177   1426.31714     614.3965     594.9177
   1426.30188     617.8969     596.5541   1426.30188     617.8969     596.5541
   1426.28662     620.4409     598.6531   1426.28662     620.4409     598.6531
   1426.27136     623.1069     601.3329   1426.27136     623.1069     601.3329
   1426.25610     626.3751     601.9972   1426.25610     626.3751     601.9972
   1426.24084     628.0151     604.4455   1426.24084     628.0151     604.4455
   1426.22559     633.0690     606.8781   1426.22559     633.0690     606.8781
   1426.21033     635.0276     607.6992   1426.21033     635.0276     607.6992
   1426.19507     637.2905     609.3461   1426.19507     637.2905     609.3461
   1426.17981     639.6670     611.1393   1426.17981     639.6670     611.1393
   1426.16455     643.2906     612.9598   1426.16455     643.2906     612.9598
   1426.14929     646.1376     614.3615   1426.14929     646.1376     614.3615
   1426.13403     648.4319     615.7747   1426.13403     648.4319     615.7747
   1426.11877     652.1450     617.4547   1426.11877     652.1450     617.4547
   1426.10352     653.9206     618.5544   1426.10352     653.9206     618.5544
   1426.08826     656.8480     619.2784   1426.08826     656.8480     619.2784
   1426.07300     659.2526     621.0248   1426.07300     659.2526     621.0248
   1426.05774     661.7095     621.0614   1426.05774     661.7095     621.0614
   1426.04248     664.5889     623.6466   1426.04248     664.5889     623.6466
   1426.02722     666.3512     625.5114   1426.02722     666.3512     625.5114
   1426.01196     668.8578     626.3439   1426.01196     668.8578     626.3439
   1425.99670     672.1189     627.8799   1425.99670     672.1189     627.8799
   1425.98145     674.0358     629.2185   1425.98145     674.0358     629.2185
   1425.96619     677.1757     629.6614   1425.96619     677.1757     629.6614
   1425.95093     679.3808     631.0160   1425.95093     679.3808     631.0160
   1425.93567     683.0126     632.1491   1425.93567     683.0126     632.1491
   1425.92041     684.4059     632.0223   1425.92041     684.4059     632.0223
   1425.90515     686.2123     633.6849   1425.90515     686.2123     633.6849
   1425.88989     688.7897     634.3555   1425.88989     688.7897     634.3555
   1425.87463     691.0840     637.4238   1425.87463     691.0840     637.4238
   1425.85938     693.7302     636.6147   1425.85938     693.7302     636.6147
   1425.84412     694.9194     637.4349   1425.84412     694.9194     637.4349
   1425.82886     696.8248     638.6345   1425.82886     696.8248     638.6345
   1425.81360     699.3646     640.0340   1425.81360     699.3646     640.0340
   1425.79834     701.6502     639.9293   1425.79834     701.6502     639.9293
   1425.78308     704.4642     640.7198   1425.78308     704.4642     640.7198
   1425.76782     705.8464     641.4313   1425.76782     705.8464     641.4313
   1425.75256     707.9871     641.2814   1425.75256     707.9871     641.2814
   1425.73730     711.1768     643.5814   1425.73730     711.1768     643.5814
   1425.72205     712.3712     643.9460   1425.72205     712.3712     643.9460
   1425.70679     713.9872     643.7271   1425.70679     713.9872     643.7271
   1425.69153     715.4907     645.4169   1425.69153     715.4907     645.4169
   1425.67627     717.8538     645.7545   1425.67627     717.8538     645.7545
   1425.66101     719.7084     646.8752   1425.66101     719.7084     646.8752
   1425.64575     721.8792     646.6486   1425.64575     721.8792     646.6486
   1425.63049     724.2063     647.3599   1425.63049     724.2063     647.3599
   1425.61523     726.3148     647.7476   1425.61523     726.3148     647.7476
   1425.59998     726.4320     647.6501   1425.59998     726.4320     647.6501
   1425.58472     729.4850     649.5408   1425.58472     729.4850     649.5408
   1425.56946     730.6140     650.0334   1425.56946     730.6140     650.0334
   1425.55420     730.5784     649.7067   1425.55420     730.5784     649.7067
   1425.53894     733.8569     650.4188   1425.53894     733.8569     650.4188
   1425.52368     734.6518     650.1611   1425.52368     734.6518     650.1611
   1425.50842     734.6612     650.5369   1425.50842     734.6612     650.5369
   1425.49316     738.8325     651.4459   1425.49316     738.8325     651.4459
   1425.47791     738.7032     650.5357   1425.47791     738.7032     650.5357
   1425.46265     741.6711     650.9541   1425.46265     741.6711     650.9541
   1425.44739     742.1505     651.5031   1425.44739     742.1505     651.5031
   1425.43213     742.7516     651.9350   1425.43213     742.7516     651.9350
   1425.41687     744.4985     652.3734   1425.41687     744.4985     652.3734
   1425.40161     745.6649     651.0610   1425.40161     745.6649     651.0610
   1425.38635     748.3600     651.4438   1425.38635     748.3600     651.4438
   1425.37109     748.3767     652.2382   1425.37109     748.3767     652.2382
   1425.35583     749.6557     653.1202   1425.35583     749.6557     653.1202
   1425.34058     751.6472     652.6951   1425.34058     751.6472     652.6951
   1425.32532     751.5682     652.4015   1425.32532     751.5682     652.4015
   1425.31006     752.6760     652.4852   1425.31006     752.6760     652.4852
   1425.29480     754.4245     651.7483   1425.29480     754.4245     651.7483
   1425.27954     754.2366     652.5513   1425.27954     754.2366     652.5513
   1425.26428     756.0145     652.2568   1425.26428     756.0145     652.2568
   1425.24902     757.6776     652.9192   1425.24902     757.6776     652.9192
   1425.23376     758.2875     651.0192   1425.23376     758.2875     651.0192
   1425.21851     758.3661     652.4177   1425.21851     758.3661     652.4177
   1425.20325     760.0251     652.4585   1425.20325     760.0251     652.4585
   1425.18799     760.8357     652.0599   1425.18799     760.8357     652.0599
   1425.17273     760.1714     651.8358   1425.17273     760.1714     651.8358
   1425.15747     762.8198     652.9326   1425.15747     762.8198     652.9326
   1425.14221     761.8627     651.6163   1425.14221     761.8627     651.6163
   1425.12695     763.6488     651.0336   1425.12695     763.6488     651.0336
   1425.11169     763.6198     651.6368   1425.11169     763.6198     651.6368
   1425.09644     764.2607     651.4778   1425.09644     764.2607     651.4778
   1425.08118     765.2260     650.5184   1425.08118     765.2260     650.5184
   1425.06592     765.9857     651.6796   1425.06592     765.9857     651.6796
   1425.05066     766.1912     649.9212   1425.05066     766.1912     649.9212
   1425.03540     766.8540     649.8473   1425.03540     766.8540     649.8473
   1425.02014     768.8555     650.4720   1425.02014     768.8555     650.4720
   1425.00488     768.5798     648.4680   1425.00488     768.5798     648.4680
   1424.98962     769.5017     650.8737   1424.98962     769.5017     650.8737
   1424.97437     768.5756     650.1736   1424.97437     768.5756     650.1736
   1424.95911     770.4889     648.6459   1424.95911     770.4889     648.6459
   1424.94385     770.5146     649.7519   1424.94385     770.5146     649.7519
   1424.92859     771.1254     649.1873   1424.92859     771.1254     649.1873
   1424.91333     771.3040     646.8547   1424.91333     771.3040     646.8547
   1424.89807     769.6642     647.2563   1424.89807     769.6642     647.2563
   1424.88281     771.8826     647.2018   1424.88281     771.8826     647.2018
   1424.86755     771.2454     646.6436   1424.86755     771.2454     646.6436
   1424.85229     772.2130     647.2771   1424.85229     772.2130     647.2771
   1424.83704     773.1061     646.0455   1424.83704     773.1061     646.0455
   1424.82178     772.3279     644.9561   1424.82178     772.3279     644.9561
   1424.80652     771.9775     644.8504   1424.80652     771.9775     644.8504
   1424.79126     772.6038     644.1801   1424.79126     772.6038     644.1801
   1424.77600     772.9755     644.3061   1424.77600     772.9755     644.3061
   1424.76074     772.6873     643.1088   1424.76074     772.6873     643.1088
   1424.74548     772.9839     643.0576   1424.74548     772.9839     643.0576
   1424.73022     773.4855     643.1545   1424.73022     773.4855     643.1545
   1424.71497     773.1478     642.7845   1424.71497     773.1478     642.7845
   1424.69971     773.7594     642.2048   1424.69971     773.7594     642.2048
   1424.68445     772.9882     640.8181   1424.68445     772.9882     640.8181
   1424.66919     774.1390     641.4042   1424.66919     774.1390     641.4042
   1424.65393     772.3030     639.7510   1424.65393     772.3030     639.7510
   1424.63867     773.2399     638.7011   1424.63867     773.2399     638.7011
   1424.62341     773.2510     638.1353   1424.62341     773.2510     638.1353
   1424.60815     773.0009     637.9995   1424.60815     773.0009     637.9995
   1424.59290     773.5678     639.0568   1424.59290     773.5678     639.0568
   1424.57764     773.7041     637.4197   1424.57764     773.7041     637.4197
   1424.56238     773.5300     637.6925   1424.56238     773.5300     637.6925
   1424.54712     772.3868     637.1188   1424.54712     772.3868     637.1188
   1424.53186     772.6264     636.4785   1424.53186     772.6264     636.4785
   1424.51660     772.4361     635.9950   1424.51660     772.4361     635.9950
   1424.50134     772.6219     634.9077   1424.50134     772.6219     634.9077
   1424.48608     773.7589     633.5116   1424.48608     773.7589     633.5116
   1424.47083     772.6074     634.9128   1424.47083     772.6074     634.9128
   1424.45557     772.6065     633.4026   1424.45557     772.6065     633.4026
   1424.44031     771.4944     632.0247   1424.44031     771.4944     632.0247
   1424.42505     771.3248     632.4214   1424.42505     771.3248     632.4214
   1424.40979     772.1669     631.7289   1424.40979     772.1669     631.7289
   1424.39453     770.8431     631.5785   1424.39453     770.8431     631.5785
   1424.37927     770.7949     630.6893   1424.37927     770.7949     630.6893
   1424.36401     770.7689     630.4941   1424.36401     770.7689     630.4941
   1424.34875     770.1688     628.7910   1424.34875     770.1688     628.7910
   1424.33350     770.2823     627.5280   1424.33350     770.2823     627.5280
   1424.31824     769.0004     626.8674   1424.31824     769.0004     626.8674
   1424.30298     769.9679     626.0146   1424.30298     769.9679     626.0146
   1424.28772     768.6573     626.3355   1424.28772     768.6573     626.3355
   1424.27246     768.1345     625.1849   1424.27246     768.1345     625.1849
   1424.25720     768.9986     624.6254   1424.25720     768.9986     624.6254
   1424.24194     767.8117     624.3344   1424.24194     767.8117     624.3344
   1424.22668     767.0486     623.4722   1424.22668     767.0486     623.4722
   1424.21143     767.3261     622.8716   1424.21143     767.3261     622.8716
   1424.19617     766.2167     622.4429   1424.19617     766.2167     622.4429
   1424.18091     766.0605     622.1121   1424.18091     766.0605     622.1121
   1424.16565     765.9468     620.0471   1424.16565     765.9468     620.0471
   1424.15039     765.9409     619.8495   1424.15039     765.9409     619.8495
   1424.13513     763.8199     619.8905   1424.13513     763.8199     619.8905
   1424.11987     764.2489     619.3527   1424.11987     764.2489     619.3527
   1424.10461     764.2586     617.4171   1424.10461     764.2586     617.4171
   1424.08936     764.6157     618.4081   1424.08936     764.6157     618.4081
   1424.07410     764.0948     617.3892   1424.07410     764.0948     617.3892
   1424.05884     762.0901     616.4003   1424.05884     762.0901     616.4003
   1424.04358     761.1871     616.5845   1424.04358     761.1871     616.5845
   1424.02832     762.3591     615.1025   1424.02832     762.3591     615.1025
   1424.01306     761.8010     613.5464   1424.01306     761.8010     613.5464
   1423.99780     759.9742     614.0014   1423.99780     759.9742     614.0014
   1423.98254     760.7571     613.1205   1423.98254     760.7571     613.1205
   1423.96729     759.3195     612.7601   1423.96729     759.3195     612.7601
   1423.95203     759.7426     610.8878   1423.95203     759.7426     610.8878
   1423.93677     759.9344     609.1921   1423.93677     759.9344     609.1921
   1423.92151     758.9451     610.3179   1423.92151     758.9451     610.3179
   1423.90625     757.5000     609.5970   1423.90625     757.5000     609.5970
   1423.89099     758.0485     608.7540   1423.89099     758.0485     608.7540
   1423.87573     757.9866     609.0320   1423.87573     757.9866     609.0320
   1423.86047     756.8931     606.6130   1423.86047     756.8931     606.6130
   1423.84521     754.6735     606.3984   1423.84521     754.6735     606.3984
   1423.82996     755.5995     605.1459   1423.82996     755.5995     605.1459
   1423.81470     756.1755     604.7932   1423.81470     756.1755     604.7932
   1423.79944     755.4210     604.2975   1423.79944     755.4210     604.2975
   1423.78418     754.1254     603.9681   1423.78418     754.1254     603.9681
   1423.76892     753.6595     602.7070   1423.76892     753.6595     602.7070
   1423.75366     752.6224     601.3719   1423.75366     752.6224     601.3719
   1423.73840     752.7593     601.8019   1423.73840     752.7593     601.8019
   1423.72314     753.0585     600.2385   1423.72314     753.0585     600.2385
   1423.70789     752.5985     599.5070   1423.70789     752.5985     599.5070
   1423.69263     751.6669     598.9346   1423.69263     751.6669     598.9346
   1423.67737     750.6016     599.8428   1423.67737     750.6016     599.8428
   1423.66211     751.0235     597.6841   1423.66211     751.0235     597.6841
   1423.64685     750.2150     596.8583   1423.64685     750.2150     596.8583
   1423.63159     750.4146     596.8118   1423.63159     750.4146     596.8118
   1423.61633     748.9675     595.2145   1423.61633     748.9675     595.2145
   1423.60107     749.0333     593.9176   1423.60107     749.0333     593.9176
   1423.58582     749.4581     594.0380   1423.58582     749.4581     594.0380
   1423.57056     747.4615     592.7696   1423.57056     747.4615     592.7696
   1423.55530     747.3951     592.7926   1423.55530     747.3951     592.7926
   1423.54004     746.7761     592.0116   1423.54004     746.7761     592.0116
   1423.52478     746.9116     590.6645   1423.52478     746.9116     590.6645
   1423.50952     746.6766     589.7645   1423.50952     746.6766     589.7645
   1423.49426     745.8444     589.3497   1423.49426     745.8444     589.3497
   1423.47900     744.7706     587.9721   1423.47900     744.7706     587.9721
   1423.46375     744.1259     588.2440   1423.46375     744.1259     588.2440
   1423.44849     744.3621     587.4514   1423.44849     744.3621     587.4514
   1423.43323     744.0148     586.1370   1423.43323     744.0148     586.1370
   1423.41797     743.6116     585.5889   1423.41797     743.6116     585.5889
   1423.40271     743.4819     584.4182   1423.40271     743.4819     584.4182
   1423.38745     742.4654     584.4096   1423.38745     742.4654     584.4096
   1423.37219     742.5856     583.0558   1423.37219     742.5856     583.0558
   1423.35693     742.0505     581.8195   1423.35693     742.0505     581.8195
   1423.34167     742.9384     581.4811   1423.34167     742.9384     581.4811
   1423.32642     739.8636     580.8380   1423.32642     739.8636     580.8380
   1423.31116     741.0599     580.5216   1423.31116     741.0599     580.5216
   1423.29590     740.5583     579.4716   1423.29590     740.5583     579.4716
   1423.28064     739.9916     579.5863   1423.28064     739.9916     579.5863
   1423.26538     739.2267     578.4780   1423.26538     739.2267     578.4780
   1423.25012     738.9099     576.9736   1423.25012     738.9099     576.9736
   1423.23486     738.4341     576.2670   1423.23486     738.4341     576.2670
   1423.21960     739.0333     575.7103   1423.21960     739.0333     575.7103
   1423.20435     739.0023     574.8497   1423.20435     739.0023     574.8497
   1423.18909     738.4780     574.3383   1423.18909     738.4780     574.3383
   1423.17383     738.4415     572.1585   1423.17383     738.4415     572.1585
   1423.15857     736.7426     573.0709   1423.15857     736.7426     573.0709
   1423.14331     737.3004     571.9097   1423.14331     737.3004     571.9097
   1423.12805     736.4752     570.4015   1423.12805     736.4752     570.4015
   1423.11279     736.2952     570.0145   1423.11279     736.2952     570.0145
   1423.09753     736.1484     569.3701   1423.09753     736.1484     569.3701
   1423.08228     736.2895     569.1844   1423.08228     736.2895     569.1844
   1423.06702     734.3047     568.3531   1423.06702     734.3047     568.3531
   1423.05176     735.0645     567.4368   1423.05176     735.0645     567.4368
   1423.03650     734.2081     566.4964   1423.03650     734.2081     566.4964
   1423.02124     733.0582     565.6014   1423.02124     733.0582     565.6014
   1423.00598     734.4479     564.4619   1423.00598     734.4479     564.4619
   1422.99072     733.0837     564.7679   1422.99072     733.0837     564.7679
   1422.97546     734.1402     563.4714   1422.97546     734.1402     563.4714
   1422.96021     732.2463     562.0945   1422.96021     732.2463     562.0945
   1422.94495     732.1552     561.3679   1422.94495     732.1552     561.3679
   1422.92969     731.8767     560.2002   1422.92969     731.8767     560.2002
   1422.91443     732.2753     559.8499   1422.91443     732.2753     559.8499
   1422.89917     732.4850     559.0327   1422.89917     732.4850     559.0327
   1422.88391     731.3137     557.4484   1422.88391     731.3137     557.4484
   1422.86865     730.9613     557.1185   1422.86865     730.9613     557.1185
   1422.85339     731.0109     557.5568   1422.85339     731.0109     557.5568
   1422.83813     730.5087     555.2515   1422.83813     730.5087     555.2515
   1422.82288     730.2695     554.8669   1422.82288     730.2695     554.8669
   1422.80762     729.6501     554.6055   1422.80762     729.6501     554.6055
   1422.79236     729.8680     553.1685   1422.79236     729.8680     553.1685
   1422.77710     728.8429     552.9442   1422.77710     728.8429     552.9442
   1422.76184     729.7623     551.9751   1422.76184     729.7623     551.9751
   1422.74658     728.2424     551.7663   1422.74658     728.2424     551.7663
   1422.73132     729.2932     551.1495   1422.73132     729.2932     551.1495
   1422.71606     728.8279     549.5800   1422.71606     728.8279     549.5800
   1422.70081     728.2946     548.2957   1422.70081     728.2946     548.2957
   1422.68555     728.8715     548.3790   1422.68555     728.8715     548.3790
   1422.67029     727.6237     547.6565   1422.67029     727.6237     547.6565
   1422.65503     727.1257     546.7214   1422.65503     727.1257     546.7214
   1422.63977     726.9496     546.1242   1422.63977     726.9496     546.1242
   1422.62451     726.9854     545.0429   1422.62451     726.9854     545.0429
   1422.60925     727.7014     544.0084   1422.60925     727.7014     544.0084
   1422.59399     727.5303     543.1413   1422.59399     727.5303     543.1413
   1422.57874     726.8280     542.7321   1422.57874     726.8280     542.7321
   1422.56348     725.7832     541.5602   1422.56348     725.7832     541.5602
   1422.54822     725.8019     541.0426   1422.54822     725.8019     541.0426
   1422.53296     725.8853     539.9377   1422.53296     725.8853     539.9377
   1422.51770     725.9755     539.0644   1422.51770     725.9755     539.0644
   1422.50244     725.5722     538.5880   1422.50244     725.5722     538.5880
   1422.48718     726.4586     538.2193   1422.48718     726.4586     538.2193
   1422.47192     724.8375     537.3267   1422.47192     724.8375     537.3267
   1422.45667     724.0981     535.5079   1422.45667     724.0981     535.5079
   1422.44141     724.2667     535.3049   1422.44141     724.2667     535.3049
   1422.42615     723.4410     534.4024   1422.42615     723.4410     534.4024
   1422.41089     722.7373     533.2768   1422.41089     722.7373     533.2768
   1422.39563     724.5120     533.1400   1422.39563     724.5120     533.1400
   1422.38037     724.9417     532.4248   1422.38037     724.9417     532.4248
   1422.36511     723.3513     531.5112   1422.36511     723.3513     531.5112
   1422.34985     724.1850     530.4358   1422.34985     724.1850     530.4358
   1422.33459     724.0784     529.8517   1422.33459     724.0784     529.8517
   1422.31934     723.2112     529.1628   1422.31934     723.2112     529.1628
   1422.30408     723.1776     528.3359   1422.30408     723.1776     528.3359
   1422.28882     723.9689     528.0955   1422.28882     723.9689     528.0955
   1422.27356     724.4736     526.7275   1422.27356     724.4736     526.7275
   1422.25830     722.6989     526.2881   1422.25830     722.6989     526.2881
   1422.24304     721.6580     525.2618   1422.24304     721.6580     525.2618
   1422.22778     721.7200     524.0369   1422.22778     721.7200     524.0369
   1422.21252     722.7175     523.7497   1422.21252     722.7175     523.7497
   1422.19727     722.3430     522.6157   1422.19727     722.3430     522.6157
   1422.18201     722.0400     521.6679   1422.18201     722.0400     521.6679
   1422.16675     723.2288     520.8417   1422.16675     723.2288     520.8417
   1422.15149     722.6991     520.6321   1422.15149     722.6991     520.6321
   1422.13623     722.5316     519.5525   1422.13623     722.5316     519.5525
   1422.12097     721.7145     518.4129   1422.12097     721.7145     518.4129
   1422.10571     722.7130     517.7262   1422.10571     722.7130     517.7262
   1422.09045     721.5082     516.9191   1422.09045     721.5082     516.9191
   1422.07520     721.8004     516.4149   1422.07520     721.8004     516.4149
   1422.05994     720.7219     515.4014   1422.05994     720.7219     515.4014
   1422.04468     721.7322     514.8162   1422.04468     721.7322     514.8162
   1422.02942     720.2340     514.7565   1422.02942     720.2340     514.7565
   1422.01416     721.2484     512.5199   1422.01416     721.2484     512.5199
   1421.99890     721.1774     512.2318   1421.99890     721.1774     512.2318
   1421.98364     720.2758     511.6339   1421.98364     720.2758     511.6339
   1421.96838     720.8572     509.9662   1421.96838     720.8572     509.9662
   1421.95312     719.9109     509.9024   1421.95312     719.9109     509.9024
   1421.93787     720.0345     508.7570   1421.93787     720.0345     508.7570
   1421.92261     721.0671     507.9088   1421.92261     721.0671     507.9088
   1421.90735     720.5253     506.8911   1421.90735     720.5253     506.8911
   1421.89209     720.5153     506.3627   1421.89209     720.5153     506.3627
   1421.87683     720.1893     505.9542   1421.87683     720.1893     505.9542
   1421.86157     720.0704     504.9655   1421.86157     720.0704     504.9655
   1421.84631     720.2603     504.0192   1421.84631     720.2603     504.0192
   1421.83105     719.6519     502.2360   1421.83105     719.6519     502.2360
   1421.81580     719.5496     502.7008   1421.81580     719.5496     502.7008
   1421.80054     719.7758     500.8596   1421.80054     719.7758     500.8596
   1421.78528     719.2961     499.6643   1421.78528     719.2961     499.6643
   1421.77002     718.6018     499.7723   1421.77002     718.6018     499.7723
   1421.75476     718.8279     499.0093   1421.75476     718.8279     499.0093
   1421.73950     719.5945     498.6102   1421.73950     719.5945     498.6102
   1421.72424     718.7152     496.7675   1421.72424     718.7152     496.7675
   1421.70898     718.3887     496.7788   1421.70898     718.3887     496.7788
   1421.69373     718.6437     495.4855   1421.69373     718.6437     495.4855
   1421.67847     718.1001     494.8579   1421.67847     718.1001     494.8579
   1421.66321     718.4462     493.6918   1421.66321     718.4462     493.6918
   1421.64795     717.4069     492.2783   1421.64795     717.4069     492.2783
   1421.63269     718.5032     492.1608   1421.63269     718.5032     492.1608
   1421.61743     718.2533     491.0580   1421.61743     718.2533     491.0580
   1421.60217     717.4584     491.3434   1421.60217     717.4584     491.3434
   1421.58691     717.3726     489.3169   1421.58691     717.3726     489.3169
   1421.57166     716.1805     488.6273   1421.57166     716.1805     488.6273
   1421.55640     717.2272     488.4780   1421.55640     717.2272     488.4780
   1421.54114     717.5000     486.4795   1421.54114     717.5000     486.4795
   1421.52588     716.5150     485.9180   1421.52588     716.5150     485.9180
   1421.51062     716.0097     485.6702   1421.51062     716.0097     485.6702
   1421.49536     717.0435     484.7449   1421.49536     717.0435     484.7449
   1421.48010     718.0541     484.1613   1421.48010     718.0541     484.1613
   1421.46484     715.8344     482.7297   1421.46484     715.8344     482.7297
   1421.44958     715.4774     481.7552   1421.44958     715.4774     481.7552
   1421.43433     716.1825     481.9178   1421.43433     716.1825     481.9178
   1421.41907     715.9060     480.7060   1421.41907     715.9060     480.7060
   1421.40381     715.3039     479.7581   1421.40381     715.3039     479.7581
   1421.38855     715.1216     479.0144   1421.38855     715.1216     479.0144
   1421.37329     715.2867     477.7430   1421.37329     715.2867     477.7430
   1421.35803     715.9360     477.3192   1421.35803     715.9360     477.3192
   1421.34277     715.6117     476.9469   1421.34277     715.6117     476.9469
   1421.32751     715.5081     475.6815   1421.32751     715.5081     475.6815
   1421.31226     715.0978     474.7587   1421.31226     715.0978     474.7587
   1421.29700     713.9041     473.8973   1421.29700     713.9041     473.8973
   1421.28174     715.1042     472.8865   1421.28174     715.1042     472.8865
   1421.26648     713.5953     471.5420   1421.26648     713.5953     471.5420
   1421.25122     713.8267     471.5736   1421.25122     713.8267     471.5736
   1421.23596     714.9359     470.0603   1421.23596     714.9359     470.0603
   1421.22070     713.8647     469.5436   1421.22070     713.8647     469.5436
   1421.20544     712.2122     468.1120   1421.20544     712.2122     468.1120
   1421.19019     713.3672     468.6632   1421.19019     713.3672     468.6632
   1421.17493     712.8917     467.6681   1421.17493     712.8917     467.6681
   1421.15967     712.2729     466.3023   1421.15967     712.2729     466.3023
   1421.14441     711.3903     465.4614   1421.14441     711.3903     465.4614
   1421.12915     711.9609     465.5152   1421.12915     711.9609     465.5152
   1421.11389     712.8291     463.9780   1421.11389     712.8291     463.9780
   1421.09863     712.4841     463.1788   1421.09863     712.4841     463.1788
   1421.08337     711.5288     462.5825   1421.08337     711.5288     462.5825
   1421.06812     711.7817     461.8910   1421.06812     711.7817     461.8910
   1421.05286     711.4160     460.0740   1421.05286     711.4160     460.0740
   1421.03760     710.1459     459.7032   1421.03760     710.1459     459.7032
   1421.02234     711.8340     459.5526   1421.02234     711.8340     459.5526
   1421.00708     710.3161     458.2598   1421.00708     710.3161     458.2598
   1420.99182     712.2822     457.3915   1420.99182     712.2822     457.3915
   1420.97656     710.1390     456.5871   1420.97656     710.1390     456.5871
   1420.96130     710.6810     454.9875   1420.96130     710.6810     454.9875
   1420.94604     710.5609     454.6819   1420.94604     710.5609     454.6819
   1420.93079     709.8087     454.9040   1420.93079     709.8087     454.9040
   1420.91553     710.7275     453.9446   1420.91553     710.7275     453.9446
   1420.90027     710.2700     452.3822   1420.90027     710.2700     452.3822
   1420.88501     709.0707     452.6718   1420.88501     709.0707     452.6718
   1420.86975     708.6351     451.0307   1420.86975     708.6351     451.0307
   1420.85449     710.6178     450.6657   1420.85449     710.6178     450.6657
   1420.83923     709.9098     449.9774   1420.83923     709.9098     449.9774
   1420.82397     709.7393     448.9746   1420.82397     709.7393     448.9746
   1420.80872     709.8864     448.4920   1420.80872     709.8864     448.4920
   1420.79346     709.4237     447.9069   1420.79346     709.4237     447.9069
   1420.77820     710.2001     447.5448   1420.77820     710.2001     447.5448
   1420.76294     709.5576     446.7402   1420.76294     709.5576     446.7402
   1420.74768     710.2009     446.4299   1420.74768     710.2009     446.4299
   1420.73242     711.3025     445.9883   1420.73242     711.3025     445.9883
   1420.71716     710.9039     445.2405   1420.71716     710.9039     445.2405
   1420.70190     711.3072     444.8319   1420.70190     711.3072     444.8319
   1420.68665     711.0692     443.9626   1420.68665     711.0692     443.9626
   1420.67139     712.9376     444.6373   1420.67139     712.9376     444.6373
   1420.65613     713.5202     443.7204   1420.65613     713.5202     443.7204
   1420.64087     715.0204     442.6804   1420.64087     715.0204     442.6804
   1420.62561     716.1449     443.9421   1420.62561     716.1449     443.9421
   1420.61035     717.2528     443.8258   1420.61035     717.2528     443.8258
   1420.59509     718.6103     443.8871   1420.59509     718.6103     443.8871
   1420.57983     720.2765     445.3751   1420.57983     720.2765     445.3751
   1420.56458     724.9492     446.8157   1420.56458     724.9492     446.8157
   1420.54932     732.7621     449.7331   1420.54932     732.7621     449.7331
   1420.53406     739.3555     453.2853   1420.53406     739.3555     453.2853
   1420.51880     746.7028     456.7440   1420.51880     746.7028     456.7440
   1420.50354     753.5403     460.5444   1420.50354     753.5403     460.5444
   1420.48828     767.4073     467.8083   1420.48828     767.4073     467.8083
   1420.47302     792.0432     481.9788   1420.47302     792.0432     481.9788
   1420.45776     827.6171     502.4691   1420.45776     827.6171     502.4691
   1420.44250     877.7513     530.8596   1420.44250     877.7513     530.8596
   1420.42725     977.5250     589.0237   1420.42725     977.5250     589.0237
   1420.41199    1215.4781     726.6541   1420.41199    1215.4781     726.6541
   1420.39673    1683.0526    1000.9510   1420.39673    1683.0526    1000.9510
   1420.38147    2014.0300    1193.4158   1420.38147    2014.0300    1193.4158
   1420.36621    2031.9355    1203.4480   1420.36621    2031.9355    1203.4480
   1420.35095    2082.1602    1230.7925   1420.35095    2082.1602    1230.7925
   1420.33569    2398.0632    1416.3597   1420.33569    2398.0632    1416.3597
   1420.32043    2546.3296    1500.3315   1420.32043    2546.3296    1500.3315
   1420.30518    2430.2437    1428.6823   1420.30518    2430.2437    1428.6823
   1420.28992    2247.3218    1322.0574   1420.28992    2247.3218    1322.0574
   1420.27466    1940.0875    1138.8025   1420.27466    1940.0875    1138.8025
   1420.25940    1292.5950     764.9374   1420.25940    1292.5950     764.9374
   1420.24414     925.6119     549.4158   1420.24414     925.6119     549.4158
   1420.22888     808.1064     481.2712   1420.22888     808.1064     481.2712
   1420.21362     758.9048     451.7284   1420.21362     758.9048     451.7284
   1420.19836     733.6591     436.8493   1420.19836     733.6591     436.8493
   1420.18311     721.4324     428.6731   1420.18311     721.4324     428.6731
   1420.16785     713.8531     424.3563   1420.16785     713.8531     424.3563
   1420.15259     711.1110     421.7745   1420.15259     711.1110     421.7745
   1420.13733     707.4089     419.3625   1420.13733     707.4089     419.3625
   1420.12207     705.0145     417.6146   1420.12207     705.0145     417.6146
   1420.10681     702.9207     415.9341   1420.10681     702.9207     415.9341
   1420.09155     701.8185     414.8369   1420.09155     701.8185     414.8369
   1420.07629     699.6752     412.5674   1420.07629     699.6752     412.5674
   1420.06104     698.7568     411.9858   1420.06104     698.7568     411.9858
   1420.04578     698.7705     411.1270   1420.04578     698.7705     411.1270
   1420.03052     699.0068     410.3326   1420.03052     699.0068     410.3326
   1420.01526     697.8819     409.4832   1420.01526     697.8819     409.4832
   1420.00000     699.1337     410.2509   1420.00000     699.1337     410.2509
   1419.98474     700.3854     411.0187   1419.98474     700.3854     411.0187
   1419.96948     699.7753     408.1439   1419.96948     699.7753     408.1439
   1419.95422     696.9520     406.5540   1419.95422     696.9520     406.5540
   1419.93896     696.8606     405.8250   1419.93896     696.8606     405.8250
   1419.92371     696.1628     405.2130   1419.92371     696.1628     405.2130
   1419.90845     696.7789     404.6001   1419.90845     696.7789     404.6001
   1419.89319     695.7514     404.0646   1419.89319     695.7514     404.0646
   1419.87793     696.0993     403.5885   1419.87793     696.0993     403.5885
   1419.86267     695.7120     402.5719   1419.86267     695.7120     402.5719
   1419.84741     694.5369     401.9982   1419.84741     694.5369     401.9982
   1419.83215     695.8393     402.3729   1419.83215     695.8393     402.3729
   1419.81689     695.3754     400.6512   1419.81689     695.3754     400.6512
   1419.80164     696.2247     400.2907   1419.80164     696.2247     400.2907
   1419.78638     695.0087     399.9379   1419.78638     695.0087     399.9379
   1419.77112     695.1854     399.3536   1419.77112     695.1854     399.3536
   1419.75586     695.2892     398.7961   1419.75586     695.2892     398.7961
   1419.74060     695.1562     398.0988   1419.74060     695.1562     398.0988
   1419.72534     695.4582     397.9768   1419.72534     695.4582     397.9768
   1419.71008     695.6590     398.2660   1419.71008     695.6590     398.2660
   1419.69482     695.7231     397.1176   1419.69482     695.7231     397.1176
   1419.67957     695.8446     396.8920   1419.67957     695.8446     396.8920
   1419.66431     695.2587     396.8679   1419.66431     695.2587     396.8679
   1419.64905     694.8707     396.4402   1419.64905     694.8707     396.4402
   1419.63379     695.7858     396.3687   1419.63379     695.7858     396.3687
   1419.61853     696.1757     394.9562   1419.61853     696.1757     394.9562
   1419.60327     695.6799     394.9317   1419.60327     695.6799     394.9317
   1419.58801     696.2881     395.0229   1419.58801     696.2881     395.0229
   1419.57275     695.8423     394.1068   1419.57275     695.8423     394.1068
   1419.55750     695.0764     394.1946   1419.55750     695.0764     394.1946
   1419.54224     695.5818     394.0312   1419.54224     695.5818     394.0312
   1419.52698     695.7148     393.4243   1419.52698     695.7148     393.4243
   1419.51172     696.2654     393.5363   1419.51172     696.2654     393.5363
   1419.49646     697.2940     393.2129   1419.49646     697.2940     393.2129
   1419.48120     697.6295     392.8051   1419.48120     697.6295     392.8051
   1419.46594     697.6310     392.1971   1419.46594     697.6310     392.1971
   1419.45068     697.2489     391.8113   1419.45068     697.2489     391.8113
   1419.43542     696.9160     391.3428   1419.43542     696.9160     391.3428
   1419.42017     697.5932     391.2283   1419.42017     697.5932     391.2283
   1419.40491     696.5516     391.4717   1419.40491     696.5516     391.4717
   1419.38965     698.6460     390.7687   1419.38965     698.6460     390.7687
   1419.37439     698.0811     390.0830   1419.37439     698.0811     390.0830
   1419.35913     699.1104     390.1046   1419.35913     699.1104     390.1046
   1419.34387     698.7623     389.9468   1419.34387     698.7623     389.9468
   1419.32861     699.1486     390.1703   1419.32861     699.1486     390.1703
   1419.31335     700.0204     389.9279   1419.31335     700.0204     389.9279
   1419.29810     700.0805     389.3587   1419.29810     700.0805     389.3587
   1419.28284     700.1357     389.7733   1419.28284     700.1357     389.7733
   1419.26758     701.1765     389.7484   1419.26758     701.1765     389.7484
   1419.25232     701.1003     389.9681   1419.25232     701.1003     389.9681
   1419.23706     701.3945     389.8605   1419.23706     701.3945     389.8605
   1419.22180     701.3293     389.1347   1419.22180     701.3293     389.1347
   1419.20654     700.7643     389.3068   1419.20654     700.7643     389.3068
   1419.19128     702.4843     389.2835   1419.19128     702.4843     389.2835
   1419.17603     701.1299     389.0950   1419.17603     701.1299     389.0950
   1419.16077     702.4706     388.0039   1419.16077     702.4706     388.0039
   1419.14551     702.9079     388.4308   1419.14551     702.9079     388.4308
   1419.13025     702.5137     388.3064   1419.13025     702.5137     388.3064
   1419.11499     703.7857     388.2778   1419.11499     703.7857     388.2778
   1419.09973     703.3131     388.6810   1419.09973     703.3131     388.6810
   1419.08447     704.6602     388.3152   1419.08447     704.6602     388.3152
   1419.06921     704.8665     388.6176   1419.06921     704.8665     388.6176
   1419.05396     704.0863     389.3189   1419.05396     704.0863     389.3189
   1419.03870     704.0892     388.3219   1419.03870     704.0892     388.3219
   1419.02344     706.0878     387.8653   1419.02344     706.0878     387.8653
   1419.00818     704.8539     388.8243   1419.00818     704.8539     388.8243
   1418.99292     706.3615     388.3239   1418.99292     706.3615     388.3239
   1418.97766     706.9535     388.9384   1418.97766     706.9535     388.9384
   1418.96240     707.5374     388.6800   1418.96240     707.5374     388.6800
   1418.94714     707.5626     388.8267   1418.94714     707.5626     388.8267
   1418.93188     707.4277     388.7519   1418.93188     707.4277     388.7519
   1418.91663     708.0084     388.6257   1418.91663     708.0084     388.6257
   1418.90137     709.8759     389.0410   1418.90137     709.8759     389.0410
   1418.88611     710.0739     388.9550   1418.88611     710.0739     388.9550
   1418.87085     711.1679     388.9105   1418.87085     711.1679     388.9105
   1418.85559     709.6089     389.1043   1418.85559     709.6089     389.1043
   1418.84033     710.3815     389.6043   1418.84033     710.3815     389.6043
   1418.82507     711.3746     389.7592   1418.82507     711.3746     389.7592
   1418.80981     711.2899     389.8213   1418.80981     711.2899     389.8213
   1418.79456     712.2067     389.5740   1418.79456     712.2067     389.5740
   1418.77930     713.0986     389.9570   1418.77930     713.0986     389.9570
   1418.76404     713.2793     390.0523   1418.76404     713.2793     390.0523
   1418.74878     714.0093     390.1009   1418.74878     714.0093     390.1009
   1418.73352     715.2605     390.7572   1418.73352     715.2605     390.7572
   1418.71826     714.8655     391.7614   1418.71826     714.8655     391.7614
   1418.70300     716.0436     391.9500   1418.70300     716.0436     391.9500
   1418.68774     715.3088     391.6120   1418.68774     715.3088     391.6120
   1418.67249     715.1423     391.8535   1418.67249     715.1423     391.8535
   1418.65723     717.5861     392.2895   1418.65723     717.5861     392.2895
   1418.64197     716.8738     392.1103   1418.64197     716.8738     392.1103
   1418.62671     718.5416     392.9292   1418.62671     718.5416     392.9292
   1418.61145     717.8946     392.6689   1418.61145     717.8946     392.6689
   1418.59619     719.1733     393.6061   1418.59619     719.1733     393.6061
   1418.58093     719.6714     393.5151   1418.58093     719.6714     393.5151
   1418.56567     720.1589     394.4091   1418.56567     720.1589     394.4091
   1418.55042     721.2631     394.4169   1418.55042     721.2631     394.4169
   1418.53516     721.7955     395.0331   1418.53516     721.7955     395.0331
   1418.51990     722.6396     395.0052   1418.51990     722.6396     395.0052
   1418.50464     722.7272     395.5135   1418.50464     722.7272     395.5135
   1418.48938     722.8613     395.7956   1418.48938     722.8613     395.7956
   1418.47412     723.4751     396.4816   1418.47412     723.4751     396.4816
   1418.45886     724.8719     397.0027   1418.45886     724.8719     397.0027
   1418.44360     725.1163     397.0667   1418.44360     725.1163     397.0667
   1418.42834     726.3926     397.1657   1418.42834     726.3926     397.1657
   1418.41309     726.0976     397.4624   1418.41309     726.0976     397.4624
   1418.39783     727.8874     398.2507   1418.39783     727.8874     398.2507
   1418.38257     728.4280     398.5208   1418.38257     728.4280     398.5208
   1418.36731     728.9594     399.2971   1418.36731     728.9594     399.2971
   1418.35205     728.6692     399.7461   1418.35205     728.6692     399.7461
   1418.33679     730.9554     400.4858   1418.33679     730.9554     400.4858
   1418.32153     730.9666     400.8695   1418.32153     730.9666     400.8695
   1418.30627     731.5480     400.9691   1418.30627     731.5480     400.9691
   1418.29102     733.2886     401.8953   1418.29102     733.2886     401.8953
   1418.27576     731.6752     401.4553   1418.27576     731.6752     401.4553
   1418.26050     732.3489     402.6582   1418.26050     732.3489     402.6582
   1418.24524     734.6776     403.6866   1418.24524     734.6776     403.6866
   1418.22998     733.9389     403.4201   1418.22998     733.9389     403.4201
   1418.21472     735.6740     404.5302   1418.21472     735.6740     404.5302
   1418.19946     736.1984     404.5173   1418.19946     736.1984     404.5173
   1418.18420     737.4855     405.0610   1418.18420     737.4855     405.0610
   1418.16895     738.1910     405.9743   1418.16895     738.1910     405.9743
   1418.15369     737.3116     407.0070   1418.15369     737.3116     407.0070
   1418.13843     739.2828     407.0201   1418.13843     739.2828     407.0201
   1418.12317     739.3718     407.8327   1418.12317     739.3718     407.8327
   1418.10791     739.7646     408.1978   1418.10791     739.7646     408.1978
   1418.09265     742.1218     409.5997   1418.09265     742.1218     409.5997
   1418.07739     742.7460     410.5196   1418.07739     742.7460     410.5196
   1418.06213     742.9550     410.8447   1418.06213     742.9550     410.8447
   1418.04688     744.3123     411.2181   1418.04688     744.3123     411.2181
   1418.03162     744.2651     411.8771   1418.03162     744.2651     411.8771
   1418.01636     744.8522     412.8843   1418.01636     744.8522     412.8843
   1418.00110     746.5547     413.1877   1418.00110     746.5547     413.1877
   1417.98584     746.6864     413.7653   1417.98584     746.6864     413.7653
   1417.97058     746.8444     415.0069   1417.97058     746.8444     415.0069
   1417.95532     748.1696     415.5235   1417.95532     748.1696     415.5235
   1417.94006     748.6235     416.1595   1417.94006     748.6235     416.1595
   1417.92480     750.5670     417.4334   1417.92480     750.5670     417.4334
   1417.90955     750.2777     417.6390   1417.90955     750.2777     417.6390
   1417.89429     751.6791     418.2945   1417.89429     751.6791     418.2945
   1417.87903     752.1221     419.7030   1417.87903     752.1221     419.7030
   1417.86377     752.0672     420.5585   1417.86377     752.0672     420.5585
   1417.84851     753.3693     420.7721   1417.84851     753.3693     420.7721
   1417.83325     754.8783     421.8221   1417.83325     754.8783     421.8221
   1417.81799     754.7366     422.5550   1417.81799     754.7366     422.5550
   1417.80273     755.8367     424.0574   1417.80273     755.8367     424.0574
   1417.78748     757.8995     424.1809   1417.78748     757.8995     424.1809
   1417.77222     757.5474     424.9078   1417.77222     757.5474     424.9078
   1417.75696     758.3339     425.8837   1417.75696     758.3339     425.8837
   1417.74170     759.0686     427.1655   1417.74170     759.0686     427.1655
   1417.72644     759.9424     427.2661   1417.72644     759.9424     427.2661
   1417.71118     760.8907     429.1915   1417.71118     760.8907     429.1915
   1417.69592     762.0196     429.3938   1417.69592     762.0196     429.3938
   1417.68066     761.4309     429.6563   1417.68066     761.4309     429.6563
   1417.66541     763.2266     430.5798   1417.66541     763.2266     430.5798
   1417.65015     763.1632     431.7886   1417.65015     763.1632     431.7886
   1417.63489     764.6006     432.4901   1417.63489     764.6006     432.4901
   1417.61963     765.3563     433.2386   1417.61963     765.3563     433.2386
   1417.60437     766.6205     434.6516   1417.60437     766.6205     434.6516
   1417.58911     767.1848     435.9401   1417.58911     767.1848     435.9401
   1417.57385     767.9063     436.7344   1417.57385     767.9063     436.7344
   1417.55859     768.2275     437.5892   1417.55859     768.2275     437.5892
   1417.54333     768.4889     438.7827   1417.54333     768.4889     438.7827
   1417.52808     771.1227     439.9078   1417.52808     771.1227     439.9078
   1417.51282     771.0237     440.2060   1417.51282     771.0237     440.2060
   1417.49756     771.1265     441.4627   1417.49756     771.1265     441.4627
   1417.48230     772.6693     442.6945   1417.48230     772.6693     442.6945
   1417.46704     773.2833     442.6697   1417.46704     773.2833     442.6697
   1417.45178     773.8038     444.3441   1417.45178     773.8038     444.3441
   1417.43652     774.6775     444.8993   1417.43652     774.6775     444.8993
   1417.42126     773.7648     445.8048   1417.42126     773.7648     445.8048
   1417.40601     776.7679     447.1902   1417.40601     776.7679     447.1902
   1417.39075     775.7946     449.0082   1417.39075     775.7946     449.0082
   1417.37549     777.9251     449.3022   1417.37549     777.9251     449.3022
   1417.36023     778.4877     450.3406   1417.36023     778.4877     450.3406
   1417.34497     778.9623     451.7827   1417.34497     778.9623     451.7827
   1417.32971     779.0525     451.7367   1417.32971     779.0525     451.7367
   1417.31445     779.8700     452.7964   1417.31445     779.8700     452.7964
   1417.29919     780.5859     454.4083   1417.29919     780.5859     454.4083
   1417.28394     781.6016     455.2111   1417.28394     781.6016     455.2111
   1417.26868     783.7349     456.0665   1417.26868     783.7349     456.0665
   1417.25342     782.4957     457.3294   1417.25342     782.4957     457.3294
   1417.23816     783.2887     457.3951   1417.23816     783.2887     457.3951
   1417.22290     785.3279     458.2917   1417.22290     785.3279     458.2917
   1417.20764     785.0363     460.3174   1417.20764     785.0363     460.3174
   1417.19238     785.5635     461.7374   1417.19238     785.5635     461.7374
   1417.17712     786.6122     462.3260   1417.17712     786.6122     462.3260
   1417.16187     786.2239     462.8944   1417.16187     786.2239     462.8944
   1417.14661     787.0839     464.2555   1417.14661     787.0839     464.2555
   1417.13135     788.1854     465.2190   1417.13135     788.1854     465.2190
   1417.11609     789.1536     465.9568   1417.11609     789.1536     465.9568
   1417.10083     789.4276     467.6353   1417.10083     789.4276     467.6353
   1417.08557     791.4873     468.1801   1417.08557     791.4873     468.1801
   1417.07031     791.8031     469.1562   1417.07031     791.8031     469.1562
   1417.05505     790.1988     470.4025   1417.05505     790.1988     470.4025
   1417.03979     790.4470     471.2023   1417.03979     790.4470     471.2023
   1417.02454     790.3143     471.7756   1417.02454     790.3143     471.7756
   1417.00928     792.8342     473.3312   1417.00928     792.8342     473.3312
   1416.99402     791.9329     474.0273   1416.99402     791.9329     474.0273
   1416.97876     792.7091     475.6872   1416.97876     792.7091     475.6872
   1416.96350     793.9700     475.9128   1416.96350     793.9700     475.9128
   1416.94824     792.7089     476.6736   1416.94824     792.7089     476.6736
   1416.93298     794.2954     478.1318   1416.93298     794.2954     478.1318
   1416.91772     795.9885     479.2608   1416.91772     795.9885     479.2608
   1416.90247     793.9271     479.6758   1416.90247     793.9271     479.6758
   1416.88721     794.6676     480.6015   1416.88721     794.6676     480.6015
   1416.87195     795.4005     481.7246   1416.87195     795.4005     481.7246
   1416.85669     796.4232     482.1541   1416.85669     796.4232     482.1541
   1416.84143     796.8843     482.5778   1416.84143     796.8843     482.5778
   1416.82617     797.4353     484.2555   1416.82617     797.4353     484.2555
   1416.81091     798.2458     485.4613   1416.81091     798.2458     485.4613
   1416.79565     797.2000     485.7169   1416.79565     797.2000     485.7169
   1416.78040     799.1970     485.9657   1416.78040     799.1970     485.9657
   1416.76514     797.8111     487.0156   1416.76514     797.8111     487.0156
   1416.74988     798.1281     488.7812   1416.74988     798.1281     488.7812
   1416.73462     799.6740     489.5136   1416.73462     799.6740     489.5136
   1416.71936     799.4017     489.6937   1416.71936     799.4017     489.6937
   1416.70410     799.1229     490.7321   1416.70410     799.1229     490.7321
   1416.68884     798.5794     491.8132   1416.68884     798.5794     491.8132
   1416.67358     800.9832     492.4050   1416.67358     800.9832     492.4050
   1416.65833     799.3615     492.9946   1416.65833     799.3615     492.9946
   1416.64307     801.4509     494.5327   1416.64307     801.4509     494.5327
   1416.62781     801.1495     495.2247   1416.62781     801.1495     495.2247
   1416.61255     799.7505     495.6171   1416.61255     799.7505     495.6171
   1416.59729     800.4382     495.6248   1416.59729     800.4382     495.6248
   1416.58203     801.7856     496.7274   1416.58203     801.7856     496.7274
   1416.56677     800.1074     497.3549   1416.56677     800.1074     497.3549
   1416.55151     800.4702     498.1307   1416.55151     800.4702     498.1307
   1416.53625     800.6248     497.8810   1416.53625     800.6248     497.8810
   1416.52100     801.3983     498.9350   1416.52100     801.3983     498.9350
   1416.50574     802.8743     499.8987   1416.50574     802.8743     499.8987
   1416.49048     800.9714     500.2962   1416.49048     800.9714     500.2962
   1416.47522     801.1136     500.2589   1416.47522     801.1136     500.2589
   1416.45996     801.3206     501.1568   1416.45996     801.3206     501.1568
   1416.44470     799.6277     501.2219   1416.44470     799.6277     501.2219
   1416.42944     801.2270     501.9633   1416.42944     801.2270     501.9633
   1416.41418     800.2966     502.9501   1416.41418     800.2966     502.9501
   1416.39893     801.5802     503.0400   1416.39893     801.5802     503.0400
   1416.38367     800.6797     503.6996   1416.38367     800.6797     503.6996
   1416.36841     800.4695     503.6818   1416.36841     800.4695     503.6818
   1416.35315     799.4271     504.2115   1416.35315     799.4271     504.2115
   1416.33789     800.3140     504.2461   1416.33789     800.3140     504.2461
   1416.32263     800.1503     504.6060   1416.32263     800.1503     504.6060
   1416.30737     798.2666     504.9126   1416.30737     798.2666     504.9126
   1416.29211     799.1055     506.0813   1416.29211     799.1055     506.0813
   1416.27686     798.6251     507.3026   1416.27686     798.6251     507.3026
   1416.26160     798.4581     506.0080   1416.26160     798.4581     506.0080
   1416.24634     797.2542     507.1379   1416.24634     797.2542     507.1379
   1416.23108     797.5362     507.7373   1416.23108     797.5362     507.7373
   1416.21582     798.5760     507.7527   1416.21582     798.5760     507.7527
   1416.20056     797.1431     508.4788   1416.20056     797.1431     508.4788
   1416.18530     796.8569     508.5441   1416.18530     796.8569     508.5441
   1416.17004     798.0197     508.3624   1416.17004     798.0197     508.3624
   1416.15479     796.6550     508.8790   1416.15479     796.6550     508.8790
   1416.13953     794.6260     508.0524   1416.13953     794.6260     508.0524
   1416.12427     795.5079     508.4970   1416.12427     795.5079     508.4970
   1416.10901     795.1227     509.4742   1416.10901     795.1227     509.4742
   1416.09375     794.7216     509.3579   1416.09375     794.7216     509.3579
   1416.07849     794.2638     509.9007   1416.07849     794.2638     509.9007
   1416.06323     793.8826     510.5875   1416.06323     793.8826     510.5875
   1416.04797     794.1464     509.6335   1416.04797     794.1464     509.6335
   1416.03271     793.6122     509.3136   1416.03271     793.6122     509.3136
   1416.01746     792.1403     509.5297   1416.01746     792.1403     509.5297
   1416.00220     793.0536     510.9925   1416.00220     793.0536     510.9925
   1415.98694     791.5584     509.8964   1415.98694     791.5584     509.8964
   1415.97168     791.1122     510.0041   1415.97168     791.1122     510.0041
   1415.95642     790.2672     510.4318   1415.95642     790.2672     510.4318
   1415.94116     790.8732     510.6540   1415.94116     790.8732     510.6540
   1415.92590     789.6644     509.7744   1415.92590     789.6644     509.7744
   1415.91064     790.0986     510.2664   1415.91064     790.0986     510.2664
   1415.89539     790.2821     510.7357   1415.89539     790.2821     510.7357
   1415.88013     788.3649     511.3033   1415.88013     788.3649     511.3033
   1415.86487     787.5016     510.1638   1415.86487     787.5016     510.1638
   1415.84961     787.9124     509.2874   1415.84961     787.9124     509.2874
   1415.83435     786.0969     510.8436   1415.83435     786.0969     510.8436
   1415.81909     785.1290     510.4894   1415.81909     785.1290     510.4894
   1415.80383     784.2897     510.8548   1415.80383     784.2897     510.8548
   1415.78857     784.5508     510.1477   1415.78857     784.5508     510.1477
   1415.77332     783.5923     510.0938   1415.77332     783.5923     510.0938
   1415.75806     782.7463     509.9577   1415.75806     782.7463     509.9577
   1415.74280     781.4066     509.9446   1415.74280     781.4066     509.9446
   1415.72754     781.7229     510.3944   1415.72754     781.7229     510.3944
   1415.71228     780.4903     510.0854   1415.71228     780.4903     510.0854
   1415.69702     779.9722     510.4766   1415.69702     779.9722     510.4766
   1415.68176     780.3304     509.6903   1415.68176     780.3304     509.6903
   1415.66650     778.1558     509.8474   1415.66650     778.1558     509.8474
   1415.65125     777.9169     510.5572   1415.65125     777.9169     510.5572
   1415.63599     776.4329     509.7843   1415.63599     776.4329     509.7843
   1415.62073     776.7379     508.9473   1415.62073     776.7379     508.9473
   1415.60547     775.2969     509.3742   1415.60547     775.2969     509.3742
   1415.59021     774.5880     508.9790   1415.59021     774.5880     508.9790
   1415.57495     773.1651     508.2954   1415.57495     773.1651     508.2954
   1415.55969     773.4459     508.1615   1415.55969     773.4459     508.1615
   1415.54443     772.0582     508.0686   1415.54443     772.0582     508.0686
   1415.52917     771.8127     507.8090   1415.52917     771.8127     507.8090
   1415.51392     770.1693     508.6796   1415.51392     770.1693     508.6796
   1415.49866     770.4977     507.9389   1415.49866     770.4977     507.9389
   1415.48340     769.4270     507.1172   1415.48340     769.4270     507.1172
   1415.46814     767.2812     507.2694   1415.46814     767.2812     507.2694
   1415.45288     767.1008     507.7697   1415.45288     767.1008     507.7697
   1415.43762     765.1568     507.7562   1415.43762     765.1568     507.7562
   1415.42236     764.7981     506.7302   1415.42236     764.7981     506.7302
   1415.40710     764.2427     505.7664   1415.40710     764.2427     505.7664
   1415.39185     762.5230     506.3687   1415.39185     762.5230     506.3687
   1415.37659     761.1552     505.9886   1415.37659     761.1552     505.9886
   1415.36133     760.2411     505.8984   1415.36133     760.2411     505.8984
   1415.34607     759.3754     505.6118   1415.34607     759.3754     505.6118
   1415.33081     758.4265     505.0828   1415.33081     758.4265     505.0828
   1415.31555     756.7477     505.5594   1415.31555     756.7477     505.5594
   1415.30029     755.9521     503.9074   1415.30029     755.9521     503.9074
   1415.28503     755.6563     503.8615   1415.28503     755.6563     503.8615
   1415.26978     754.7498     503.7130   1415.26978     754.7498     503.7130
   1415.25452     752.7808     504.0943   1415.25452     752.7808     504.0943
   1415.23926     752.2827     503.2428   1415.23926     752.2827     503.2428
   1415.22400     750.7891     502.6203   1415.22400     750.7891     502.6203
   1415.20874     748.6565     502.5039   1415.20874     748.6565     502.5039
   1415.19348     748.0991     501.8425   1415.19348     748.0991     501.8425
   1415.17822     746.8898     502.2756   1415.17822     746.8898     502.2756
   1415.16296     746.5993     501.4581   1415.16296     746.5993     501.4581
   1415.14771     743.3671     500.9696   1415.14771     743.3671     500.9696
   1415.13245     742.9358     500.4486   1415.13245     742.9358     500.4486
   1415.11719     741.6363     499.3863   1415.11719     741.6363     499.3863
   1415.10193     740.2831     499.6553   1415.10193     740.2831     499.6553
   1415.08667     739.4200     498.6836   1415.08667     739.4200     498.6836
   1415.07141     737.1122     498.5032   1415.07141     737.1122     498.5032
   1415.05615     736.3158     498.5419   1415.05615     736.3158     498.5419
   1415.04089     734.0220     497.1815   1415.04089     734.0220     497.1815
   1415.02563     733.8624     496.1647   1415.02563     733.8624     496.1647
   1415.01038     732.2077     496.5473   1415.01038     732.2077     496.5473
   1414.99512     730.7794     496.3273   1414.99512     730.7794     496.3273
   1414.97986     730.0004     495.5913   1414.97986     730.0004     495.5913
   1414.96460     729.0859     494.5122   1414.96460     729.0859     494.5122
   1414.94934     726.8063     494.4532   1414.94934     726.8063     494.4532
   1414.93408     724.6241     492.7094   1414.93408     724.6241     492.7094
   1414.91882     723.2038     493.0735   1414.91882     723.2038     493.0735
   1414.90356     721.3929     491.5625   1414.90356     721.3929     491.5625
   1414.88831     722.5764     491.2204   1414.88831     722.5764     491.2204
   1414.87305     720.3180     491.2732   1414.87305     720.3180     491.2732
   1414.85779     717.1543     490.1732   1414.85779     717.1543     490.1732
   1414.84253     715.2938     489.3379   1414.84253     715.2938     489.3379
   1414.82727     714.4962     488.3916   1414.82727     714.4962     488.3916
   1414.81201     711.3517     487.4618   1414.81201     711.3517     487.4618
   1414.79675     711.4908     487.8832   1414.79675     711.4908     487.8832
   1414.78149     709.2910     486.2642   1414.78149     709.2910     486.2642
   1414.76624     705.8040     486.2027   1414.76624     705.8040     486.2027
   1414.75098     704.9359     484.3176   1414.75098     704.9359     484.3176
   1414.73572     703.3298     483.3383   1414.73572     703.3298     483.3383
   1414.72046     703.1183     483.4023   1414.72046     703.1183     483.4023
   1414.70520     700.3976     482.0734   1414.70520     700.3976     482.0734
   1414.68994     698.3928     481.3331   1414.68994     698.3928     481.3331
   1414.67468     695.7435     480.7101   1414.67468     695.7435     480.7101
   1414.65942     695.3601     479.1875   1414.65942     695.3601     479.1875
   1414.64417     693.0658     479.0124   1414.64417     693.0658     479.0124
   1414.62891     691.4542     477.7977   1414.62891     691.4542     477.7977
   1414.61365     688.9680     476.3569   1414.61365     688.9680     476.3569
   1414.59839     686.3925     476.0698   1414.59839     686.3925     476.0698
   1414.58313     684.1205     474.4151   1414.58313     684.1205     474.4151
   1414.56787     682.5253     474.2605   1414.56787     682.5253     474.2605
   1414.55261     681.0240     472.5942   1414.55261     681.0240     472.5942
   1414.53735     679.0051     472.0699   1414.53735     679.0051     472.0699
   1414.52209     676.9974     471.3077   1414.52209     676.9974     471.3077
   1414.50684     675.5015     470.1070   1414.50684     675.5015     470.1070
   1414.49158     673.4100     469.3331   1414.49158     673.4100     469.3331
   1414.47632     670.9612     468.0906   1414.47632     670.9612     468.0906
   1414.46106     667.4843     466.9711   1414.46106     667.4843     466.9711
   1414.44580     665.8984     466.1812   1414.44580     665.8984     466.1812
   1414.43054     664.5285     464.3613   1414.43054     664.5285     464.3613
   1414.41528     661.4579     463.0787   1414.41528     661.4579     463.0787
   1414.40002     660.1536     462.4189   1414.40002     660.1536     462.4189
   1414.38477     656.5354     460.9820   1414.38477     656.5354     460.9820
   1414.36951     656.1108     459.9786   1414.36951     656.1108     459.9786
   1414.35425     653.4044     458.8331   1414.35425     653.4044     458.8331
   1414.33899     649.7141     458.7449   1414.33899     649.7141     458.7449
   1414.32373     648.3782     456.2184   1414.32373     648.3782     456.2184
   1414.30847     646.6710     454.9018   1414.30847     646.6710     454.9018
   1414.29321     643.3904     453.4195   1414.29321     643.3904     453.4195
   1414.27795     640.5448     452.5014   1414.27795     640.5448     452.5014
   1414.26270     638.0898     451.2095   1414.26270     638.0898     451.2095
   1414.24744     636.3343     450.2126   1414.24744     636.3343     450.2126
   1414.23218     634.2996     448.2826   1414.23218     634.2996     448.2826
   1414.21692     631.3974     447.0086   1414.21692     631.3974     447.0086
   1414.20166     628.7596     446.1519   1414.20166     628.7596     446.1519
   1414.18640     626.6284     444.5072   1414.18640     626.6284     444.5072
   1414.17114     624.6868     444.0728   1414.17114     624.6868     444.0728
   1414.15588     620.9716     441.9106   1414.15588     620.9716     441.9106
   1414.14062     618.7813     440.2715   1414.14062     618.7813     440.2715
   1414.12537     617.1246     439.2338   1414.12537     617.1246     439.2338
   1414.11011     614.4235     437.9027   1414.11011     614.4235     437.9027
   1414.09485     611.1664     436.4164   1414.09485     611.1664     436.4164
   1414.07959     609.8452     434.0247   1414.07959     609.8452     434.0247
   1414.06433     605.7744     433.9107   1414.06433     605.7744     433.9107
   1414.04907     604.2823     431.9066   1414.04907     604.2823     431.9066
   1414.03381     601.1068     431.2355   1414.03381     601.1068     431.2355
   1414.01855     598.1992     429.2550   1414.01855     598.1992     429.2550
   1414.00330     612.5795     433.3408   1414.00330     612.5795     433.3408
   1413.98804     594.3464     426.2766   1413.98804     594.3464     426.2766
   1413.97278     590.8537     424.4832   1413.97278     590.8537     424.4832
   1413.95752     586.6057     423.0695   1413.95752     586.6057     423.0695
   1413.94226     584.9126     421.3951   1413.94226     584.9126     421.3951
   1413.92700     583.0623     419.7525   1413.92700     583.0623     419.7525
   1413.91174     579.5248     418.5069   1413.91174     579.5248     418.5069
   1413.89648     576.6578     417.0517   1413.89648     576.6578     417.0517
   1413.88123     574.0387     415.1486   1413.88123     574.0387     415.1486
   1413.86597     571.3116     413.4760   1413.86597     571.3116     413.4760
   1413.85071     568.5340     412.3457   1413.85071     568.5340     412.3457
   1413.83545     565.7936     410.8904   1413.83545     565.7936     410.8904
   1413.82019     562.9966     409.5065   1413.82019     562.9966     409.5065
   1413.80493     559.5462     408.3729   1413.80493     559.5462     408.3729
   1413.78967     557.2730     405.4752   1413.78967     557.2730     405.4752
   1413.77441     554.1357     403.7941   1413.77441     554.1357     403.7941
   1413.75916     551.3102     402.3406   1413.75916     551.3102     402.3406
   1413.74390     549.3650     401.3850   1413.74390     549.3650     401.3850
   1413.72864     546.5175     399.4339   1413.72864     546.5175     399.4339
   1413.71338     542.9951     397.2487   1413.71338     542.9951     397.2487
   1413.69812     540.6300     396.3120   1413.69812     540.6300     396.3120
   1413.68286     538.6107     394.8270   1413.68286     538.6107     394.8270
   1413.66760     534.8398     392.8371   1413.66760     534.8398     392.8371
   1413.65234     532.5620     391.3234   1413.65234     532.5620     391.3234
   1413.63708     528.5991     389.7651   1413.63708     528.5991     389.7651
   1413.62183     527.1918     388.2767   1413.62183     527.1918     388.2767
   1413.60657     523.4846     386.2785   1413.60657     523.4846     386.2785
   1413.59131     521.2657     384.5943   1413.59131     521.2657     384.5943
   1413.57605     518.5421     383.1085   1413.57605     518.5421     383.1085
   1413.56079     515.0953     381.8474   1413.56079     515.0953     381.8474
   1413.54553     513.0369     379.9756   1413.54553     513.0369     379.9756
   1413.53027     510.5494     378.0884   1413.53027     510.5494     378.0884
   1413.51501     507.3269     376.6567   1413.51501     507.3269     376.6567
   1413.49976     504.5829     375.2234   1413.49976     504.5829     375.2234
   1413.48450     502.0176     373.1296   1413.48450     502.0176     373.1296
   1413.46924     498.9478     372.1765   1413.46924     498.9478     372.1765
   1413.45398     496.5796     370.5773   1413.45398     496.5796     370.5773
   1413.43872     493.6253     368.9354   1413.43872     493.6253     368.9354
   1413.42346     491.4002     367.3128   1413.42346     491.4002     367.3128
   1413.40820     487.2934     365.5820   1413.40820     487.2934     365.5820
   1413.39294     485.1583     364.3806   1413.39294     485.1583     364.3806
   1413.37769     482.9817     362.9010   1413.37769     482.9817     362.9010
   1413.36243     480.5936     361.6491   1413.36243     480.5936     361.6491
   1413.34717     477.4545     359.3380   1413.34717     477.4545     359.3380
   1413.33191     474.8065     358.7194   1413.33191     474.8065     358.7194
   1413.31665     471.5831     356.9328   1413.31665     471.5831     356.9328
   1413.30139     469.3892     355.4014   1413.30139     469.3892     355.4014
   1413.28613     466.8058     353.9246   1413.28613     466.8058     353.9246
   1413.27087     463.6608     352.7864   1413.27087     463.6608     352.7864
   1413.25562     461.2819     350.5967   1413.25562     461.2819     350.5967
   1413.24036     458.6739     349.3539   1413.24036     458.6739     349.3539
   1413.22510     456.1547     348.5742   1413.22510     456.1547     348.5742
   1413.20984     454.1823     347.2665   1413.20984     454.1823     347.2665
   1413.19458     451.9182     345.4894   1413.19458     451.9182     345.4894
   1413.17932     449.0361     344.3817   1413.17932     449.0361     344.3817
   1413.16406     447.0127     342.8113   1413.16406     447.0127     342.8113
   1413.14880     444.1453     342.2598   1413.14880     444.1453     342.2598
   1413.13354     442.6636     340.5124   1413.13354     442.6636     340.5124
   1413.11829     440.1430     339.8720   1413.11829     440.1430     339.8720
   1413.10303     437.7092     338.3004   1413.10303     437.7092     338.3004
   1413.08777     434.8464     336.3228   1413.08777     434.8464     336.3228
   1413.07251     432.9841     336.3989   1413.07251     432.9841     336.3989
   1413.05725     431.2177     335.1296   1413.05725     431.2177     335.1296
   1413.04199     428.7119     334.1960   1413.04199     428.7119     334.1960
   1413.02673     426.8552     332.7450   1413.02673     426.8552     332.7450
   1413.01147     424.4686     332.1743   1413.01147     424.4686     332.1743
   1412.99622     421.8293     330.8492   1412.99622     421.8293     330.8492
   1412.98096     420.7019     329.6945   1412.98096     420.7019     329.6945
   1412.96570     418.5859     328.3353   1412.96570     418.5859     328.3353
   1412.95044     416.1606     327.9471   1412.95044     416.1606     327.9471
   1412.93518     414.9505     327.3213   1412.93518     414.9505     327.3213
   1412.91992     413.2548     326.7885   1412.91992     413.2548     326.7885
   1412.90466     410.7335     325.4647   1412.90466     410.7335     325.4647
   1412.88940     408.8981     325.5327   1412.88940     408.8981     325.5327
   1412.87415     406.7122     324.4890   1412.87415     406.7122     324.4890
   1412.85889     405.6883     324.0881   1412.85889     405.6883     324.0881
   1412.84363     404.3602     323.1826   1412.84363     404.3602     323.1826
   1412.82837     401.8229     322.4582   1412.82837     401.8229     322.4582
   1412.81311     401.2925     322.0399   1412.81311     401.2925     322.0399
   1412.79785     399.3210     321.8466   1412.79785     399.3210     321.8466
   1412.78259     397.7042     320.8771   1412.78259     397.7042     320.8771
   1412.76733     395.6869     320.6760   1412.76733     395.6869     320.6760
   1412.75208     395.4019     320.0724   1412.75208     395.4019     320.0724
   1412.73682     393.7675     320.2580   1412.73682     393.7675     320.2580
   1412.72156     392.3941     319.5385   1412.72156     392.3941     319.5385
   1412.70630     391.0218     320.0670   1412.70630     391.0218     320.0670
   1412.69104     390.1483     318.9045   1412.69104     390.1483     318.9045
   1412.67578     388.5904     319.3105   1412.67578     388.5904     319.3105
   1412.66052     388.2209     319.6010   1412.66052     388.2209     319.6010
   1412.64526     386.3582     319.1801   1412.64526     386.3582     319.1801
   1412.63000     384.7806     319.0058   1412.63000     384.7806     319.0058
   1412.61475     384.6628     319.5297   1412.61475     384.6628     319.5297
   1412.59949     383.5345     319.3895   1412.59949     383.5345     319.3895
   1412.58423     382.9077     319.6072   1412.58423     382.9077     319.6072
   1412.56897     381.8853     319.7252   1412.56897     381.8853     319.7252
   1412.55371     381.6105     319.6312   1412.55371     381.6105     319.6312
   1412.53845     380.1923     320.7789   1412.53845     380.1923     320.7789
   1412.52319     379.6928     320.9448   1412.52319     379.6928     320.9448
   1412.50793     379.0777     321.3292   1412.50793     379.0777     321.3292
   1412.49268     379.3442     321.5663   1412.49268     379.3442     321.5663
   1412.47742     378.1556     322.1442   1412.47742     378.1556     322.1442
   1412.46216     378.3282     323.6461   1412.46216     378.3282     323.6461
   1412.44690     377.3267     323.8041   1412.44690     377.3267     323.8041
   1412.43164     376.6231     323.9693   1412.43164     376.6231     323.9693
   1412.41638     376.8448     325.2246   1412.41638     376.8448     325.2246
   1412.40112     376.7055     326.6470   1412.40112     376.7055     326.6470
   1412.38586     376.4617     326.5109   1412.38586     376.4617     326.5109
   1412.37061     376.2113     327.8737   1412.37061     376.2113     327.8737
   1412.35535     376.4038     329.0031   1412.35535     376.4038     329.0031
   1412.34009     375.9993     330.0567   1412.34009     375.9993     330.0567
   1412.32483     375.8089     331.0504   1412.32483     375.8089     331.0504
   1412.30957     376.8071     332.8448   1412.30957     376.8071     332.8448
   1412.29431     376.3563     333.1906   1412.29431     376.3563     333.1906
   1412.27905     377.1900     335.3729   1412.27905     377.1900     335.3729
   1412.26379     377.1861     335.8875   1412.26379     377.1861     335.8875
   1412.24854     377.5426     337.7216   1412.24854     377.5426     337.7216
   1412.23328     378.2029     339.4211   1412.23328     378.2029     339.4211
   1412.21802     378.2530     340.5007   1412.21802     378.2530     340.5007
   1412.20276     378.5957     342.4139   1412.20276     378.5957     342.4139