#     FILENAME=!Skynet_57528_lachhhg96_20334_20903.cyb.fits
#     BASENAME=Skynet_57528_lachhhg96_20334_20903
#     SRC_NAME=lachhhg96
#     OBSERVER=hhgmadison16_9500
#     DATE_OBS=2016-05-20T15:15:40.500
#        OBSID=20334
#      SCANNUM=20903
#          MJD=57528.6369
#          UTC=55029
#     SCANTYPE=track
#     DATAMODE=HIRES
#     TUNEFREQ=1420.0000
# Actual_FREQ1=1420.0000
# Actual_FREQ2=1420.0000
#    LO1Tuning=6870.000
#     RFFILTER=1355_1435
#        OBSBW=-15.6250
#        NCHAN=1024 
#        FOCUS=37.0709
#           RA=21:39:01.02
#          DEC=52:30:35.85
#      RA(hrs)=21.650300
#     DEC(deg)=52.510000
#    AZIM(deg)=309.226
#    ELEV(deg)=45.157
#     IFattens=10.00, 9.00
#      WARNING=None
#    TCAL_XL1=7.9635
#    TCAL_YR1=9.1340
#    TCAL_XL2=7.9635
#    TCAL_YR2=9.1340
#     TRX_XL1=11.7060
#     TRX_YR1=11.7060
#     TRX_XL2=11.7060
#     TRX_YR2=11.7060
#        TAVE=1.0000
#Freq1(MHz)          XL1          YR1  Freq2(MHz)          XL2          YR2 

   1427.81250     372.0648     289.0247   1427.81250     372.0648     289.0247
   1427.79724     372.8497     289.4337   1427.79724     372.8497     289.4337
   1427.78198     373.8687     290.7398   1427.78198     373.8687     290.7398
   1427.76672     373.9492     291.1642   1427.76672     373.9492     291.1642
   1427.75146     375.3564     292.4875   1427.75146     375.3564     292.4875
   1427.73621     376.7788     292.3264   1427.73621     376.7788     292.3264
   1427.72095     377.0948     293.3647   1427.72095     377.0948     293.3647
   1427.70569     378.4829     294.5225   1427.70569     378.4829     294.5225
   1427.69043     379.1243     295.8709   1427.69043     379.1243     295.8709
   1427.67517     381.0616     296.6603   1427.67517     381.0616     296.6603
   1427.65991     381.9245     297.3634   1427.65991     381.9245     297.3634
   1427.64465     382.5692     298.6411   1427.64465     382.5692     298.6411
   1427.62939     384.4691     300.2978   1427.62939     384.4691     300.2978
   1427.61414     385.1459     301.1833   1427.61414     385.1459     301.1833
   1427.59888     386.6400     302.2261   1427.59888     386.6400     302.2261
   1427.58362     387.4539     303.1841   1427.58362     387.4539     303.1841
   1427.56836     388.8228     304.9098   1427.56836     388.8228     304.9098
   1427.55310     390.6797     306.4271   1427.55310     390.6797     306.4271
   1427.53784     391.9239     307.5290   1427.53784     391.9239     307.5290
   1427.52258     394.2813     308.9055   1427.52258     394.2813     308.9055
   1427.50732     396.3371     310.2118   1427.50732     396.3371     310.2118
   1427.49207     398.1989     311.9662   1427.49207     398.1989     311.9662
   1427.47681     400.1916     313.5104   1427.47681     400.1916     313.5104
   1427.46155     401.9627     315.1506   1427.46155     401.9627     315.1506
   1427.44629     403.3158     315.8834   1427.44629     403.3158     315.8834
   1427.43103     405.0167     317.4164   1427.43103     405.0167     317.4164
   1427.41577     407.8540     319.3049   1427.41577     407.8540     319.3049
   1427.40051     409.3070     320.7449   1427.40051     409.3070     320.7449
   1427.38525     411.4365     322.9769   1427.38525     411.4365     322.9769
   1427.37000     413.1649     324.3309   1427.37000     413.1649     324.3309
   1427.35474     415.3448     325.8749   1427.35474     415.3448     325.8749
   1427.33948     417.8149     327.4765   1427.33948     417.8149     327.4765
   1427.32422     420.3231     329.6362   1427.32422     420.3231     329.6362
   1427.30896     422.3034     331.2897   1427.30896     422.3034     331.2897
   1427.29370     425.2411     333.0974   1427.29370     425.2411     333.0974
   1427.27844     426.6676     334.4817   1427.27844     426.6676     334.4817
   1427.26318     429.2722     336.2827   1427.26318     429.2722     336.2827
   1427.24792     432.2280     338.9645   1427.24792     432.2280     338.9645
   1427.23267     434.4071     340.3538   1427.23267     434.4071     340.3538
   1427.21741     436.7666     342.2246   1427.21741     436.7666     342.2246
   1427.20215     439.6703     344.2749   1427.20215     439.6703     344.2749
   1427.18689     441.5309     346.3986   1427.18689     441.5309     346.3986
   1427.17163     444.4103     348.4531   1427.17163     444.4103     348.4531
   1427.15637     446.2907     350.2404   1427.15637     446.2907     350.2404
   1427.14111     449.6804     352.1858   1427.14111     449.6804     352.1858
   1427.12585     452.6369     354.3609   1427.12585     452.6369     354.3609
   1427.11060     454.8226     356.0432   1427.11060     454.8226     356.0432
   1427.09534     457.8987     358.6073   1427.09534     457.8987     358.6073
   1427.08008     460.4531     361.1328   1427.08008     460.4531     361.1328
   1427.06482     462.5253     362.3607   1427.06482     462.5253     362.3607
   1427.04956     466.4656     364.1730   1427.04956     466.4656     364.1730
   1427.03430     469.7145     366.8531   1427.03430     469.7145     366.8531
   1427.01904     471.9066     369.2867   1427.01904     471.9066     369.2867
   1427.00378     474.8020     371.0268   1427.00378     474.8020     371.0268
   1426.98853     477.9077     372.9894   1426.98853     477.9077     372.9894
   1426.97327     481.4432     374.8054   1426.97327     481.4432     374.8054
   1426.95801     483.4550     377.4203   1426.95801     483.4550     377.4203
   1426.94275     487.0948     379.7179   1426.94275     487.0948     379.7179
   1426.92749     489.5113     381.6413   1426.92749     489.5113     381.6413
   1426.91223     492.1702     384.2343   1426.91223     492.1702     384.2343
   1426.89697     495.1281     386.2476   1426.89697     495.1281     386.2476
   1426.88171     497.9255     389.2014   1426.88171     497.9255     389.2014
   1426.86646     501.9290     390.7819   1426.86646     501.9290     390.7819
   1426.85120     505.3265     393.0289   1426.85120     505.3265     393.0289
   1426.83594     508.1239     395.8367   1426.83594     508.1239     395.8367
   1426.82068     511.8352     397.7238   1426.82068     511.8352     397.7238
   1426.80542     514.1860     399.8374   1426.80542     514.1860     399.8374
   1426.79016     516.8907     401.7242   1426.79016     516.8907     401.7242
   1426.77490     520.4567     403.8197   1426.77490     520.4567     403.8197
   1426.75964     523.3944     405.2633   1426.75964     523.3944     405.2633
   1426.74438     526.4701     409.0296   1426.74438     526.4701     409.0296
   1426.72913     529.8306     411.4384   1426.72913     529.8306     411.4384
   1426.71387     532.7867     412.8108   1426.71387     532.7867     412.8108
   1426.69861     536.3381     415.8145   1426.69861     536.3381     415.8145
   1426.68335     539.5956     417.4595   1426.68335     539.5956     417.4595
   1426.66809     541.1638     419.9405   1426.66809     541.1638     419.9405
   1426.65283     544.9266     422.3846   1426.65283     544.9266     422.3846
   1426.63757     548.1459     424.5845   1426.63757     548.1459     424.5845
   1426.62231     555.3542     427.3711   1426.62231     555.3542     427.3711
   1426.60706     555.3313     429.5319   1426.60706     555.3313     429.5319
   1426.59180     558.0910     431.7138   1426.59180     558.0910     431.7138
   1426.57654     560.7670     433.9252   1426.57654     560.7670     433.9252
   1426.56128     563.8346     436.0403   1426.56128     563.8346     436.0403
   1426.54602     566.9056     437.9951   1426.54602     566.9056     437.9951
   1426.53076     570.5393     440.0896   1426.53076     570.5393     440.0896
   1426.51550     572.7745     442.7728   1426.51550     572.7745     442.7728
   1426.50024     575.7693     444.7983   1426.50024     575.7693     444.7983
   1426.48499     579.6057     446.8525   1426.48499     579.6057     446.8525
   1426.46973     581.8339     449.2957   1426.46973     581.8339     449.2957
   1426.45447     585.4069     451.5880   1426.45447     585.4069     451.5880
   1426.43921     588.7385     453.2648   1426.43921     588.7385     453.2648
   1426.42395     591.0002     455.5097   1426.42395     591.0002     455.5097
   1426.40869     594.0599     457.7592   1426.40869     594.0599     457.7592
   1426.39343     597.7578     459.6078   1426.39343     597.7578     459.6078
   1426.37817     600.5826     461.7413   1426.37817     600.5826     461.7413
   1426.36292     602.8320     463.8087   1426.36292     602.8320     463.8087
   1426.34766     605.5902     466.3564   1426.34766     605.5902     466.3564
   1426.33240     609.1064     468.8519   1426.33240     609.1064     468.8519
   1426.31714     611.8494     470.4879   1426.31714     611.8494     470.4879
   1426.30188     615.2365     472.1608   1426.30188     615.2365     472.1608
   1426.28662     616.6429     474.2452   1426.28662     616.6429     474.2452
   1426.27136     620.9095     476.7364   1426.27136     620.9095     476.7364
   1426.25610     621.7491     479.1019   1426.25610     621.7491     479.1019
   1426.24084     626.7078     481.4478   1426.24084     626.7078     481.4478
   1426.22559     628.1874     482.5237   1426.22559     628.1874     482.5237
   1426.21033     632.2145     484.5891   1426.21033     632.2145     484.5891
   1426.19507     634.5232     485.8275   1426.19507     634.5232     485.8275
   1426.17981     637.2930     488.7695   1426.17981     637.2930     488.7695
   1426.16455     639.0320     490.6626   1426.16455     639.0320     490.6626
   1426.14929     642.5330     492.9936   1426.14929     642.5330     492.9936
   1426.13403     645.2638     494.1624   1426.13403     645.2638     494.1624
   1426.11877     648.0576     496.6595   1426.11877     648.0576     496.6595
   1426.10352     649.4636     498.3212   1426.10352     649.4636     498.3212
   1426.08826     652.6432     501.0724   1426.08826     652.6432     501.0724
   1426.07300     655.5481     502.3244   1426.07300     655.5481     502.3244
   1426.05774     657.2253     504.3159   1426.05774     657.2253     504.3159
   1426.04248     660.6833     506.6417   1426.04248     660.6833     506.6417
   1426.02722     662.7629     507.7653   1426.02722     662.7629     507.7653
   1426.01196     665.0515     509.9943   1426.01196     665.0515     509.9943
   1425.99670     666.8764     511.1236   1425.99670     666.8764     511.1236
   1425.98145     670.1288     513.6451   1425.98145     670.1288     513.6451
   1425.96619     671.6343     514.6526   1425.96619     671.6343     514.6526
   1425.95093     674.9827     516.5868   1425.95093     674.9827     516.5868
   1425.93567     677.1443     518.6974   1425.93567     677.1443     518.6974
   1425.92041     678.6765     520.6607   1425.92041     678.6765     520.6607
   1425.90515     680.8592     521.8983   1425.90515     680.8592     521.8983
   1425.88989     683.1731     523.6282   1425.88989     683.1731     523.6282
   1425.87463     685.5857     524.7499   1425.87463     685.5857     524.7499
   1425.85938     686.8530     526.0863   1425.85938     686.8530     526.0863
   1425.84412     689.1894     528.8109   1425.84412     689.1894     528.8109
   1425.82886     691.6104     530.2635   1425.82886     691.6104     530.2635
   1425.81360     693.5267     532.6019   1425.81360     693.5267     532.6019
   1425.79834     694.2656     533.7489   1425.79834     694.2656     533.7489
   1425.78308     697.7965     534.9816   1425.78308     697.7965     534.9816
   1425.76782     698.5716     536.9213   1425.76782     698.5716     536.9213
   1425.75256     700.6934     538.8198   1425.75256     700.6934     538.8198
   1425.73730     702.9442     540.2906   1425.73730     702.9442     540.2906
   1425.72205     704.6308     541.4180   1425.72205     704.6308     541.4180
   1425.70679     706.1066     542.6143   1425.70679     706.1066     542.6143
   1425.69153     707.7850     544.1993   1425.69153     707.7850     544.1993
   1425.67627     709.4681     546.5441   1425.67627     709.4681     546.5441
   1425.66101     711.8812     546.8205   1425.66101     711.8812     546.8205
   1425.64575     712.8407     548.5840   1425.64575     712.8407     548.5840
   1425.63049     714.5023     550.1368   1425.63049     714.5023     550.1368
   1425.61523     714.9796     550.4338   1425.61523     714.9796     550.4338
   1425.59998     716.9535     553.3723   1425.59998     716.9535     553.3723
   1425.58472     718.8477     554.5390   1425.58472     718.8477     554.5390
   1425.56946     720.1708     555.9902   1425.56946     720.1708     555.9902
   1425.55420     722.2666     556.8850   1425.55420     722.2666     556.8850
   1425.53894     723.6160     558.9002   1425.53894     723.6160     558.9002
   1425.52368     724.7359     559.9379   1425.52368     724.7359     559.9379
   1425.50842     725.0657     560.4895   1425.50842     725.0657     560.4895
   1425.49316     726.9167     562.7771   1425.49316     726.9167     562.7771
   1425.47791     728.6523     563.3011   1425.47791     728.6523     563.3011
   1425.46265     728.9294     564.2279   1425.46265     728.9294     564.2279
   1425.44739     729.9517     566.4721   1425.44739     729.9517     566.4721
   1425.43213     732.0623     567.9880   1425.43213     732.0623     567.9880
   1425.41687     733.2568     569.3820   1425.41687     733.2568     569.3820
   1425.40161     734.7305     568.4105   1425.40161     734.7305     568.4105
   1425.38635     733.9907     571.9788   1425.38635     733.9907     571.9788
   1425.37109     736.1153     572.9095   1425.37109     736.1153     572.9095
   1425.35583     737.5748     573.8480   1425.35583     737.5748     573.8480
   1425.34058     738.4664     574.4130   1425.34058     738.4664     574.4130
   1425.32532     738.2576     575.0293   1425.32532     738.2576     575.0293
   1425.31006     739.0703     576.7412   1425.31006     739.0703     576.7412
   1425.29480     741.3427     578.6913   1425.29480     741.3427     578.6913
   1425.27954     742.9926     579.0413   1425.27954     742.9926     579.0413
   1425.26428     743.3535     580.9281   1425.26428     743.3535     580.9281
   1425.24902     743.3209     582.6058   1425.24902     743.3209     582.6058
   1425.23376     744.0690     582.7339   1425.23376     744.0690     582.7339
   1425.21851     744.4749     583.5970   1425.21851     744.4749     583.5970
   1425.20325     745.6998     584.3121   1425.20325     745.6998     584.3121
   1425.18799     746.2677     585.5769   1425.18799     746.2677     585.5769
   1425.17273     747.0679     586.1920   1425.17273     747.0679     586.1920
   1425.15747     748.9986     587.5452   1425.15747     748.9986     587.5452
   1425.14221     747.7468     589.1679   1425.14221     747.7468     589.1679
   1425.12695     749.4260     589.3176   1425.12695     749.4260     589.3176
   1425.11169     749.8458     590.8766   1425.11169     749.8458     590.8766
   1425.09644     750.8345     591.9519   1425.09644     750.8345     591.9519
   1425.08118     750.4377     592.7084   1425.08118     750.4377     592.7084
   1425.06592     750.5619     594.1377   1425.06592     750.5619     594.1377
   1425.05066     752.5237     595.3376   1425.05066     752.5237     595.3376
   1425.03540     752.0085     595.8920   1425.03540     752.0085     595.8920
   1425.02014     753.5497     596.3561   1425.02014     753.5497     596.3561
   1425.00488     753.4240     597.8345   1425.00488     753.4240     597.8345
   1424.98962     754.1938     598.4365   1424.98962     754.1938     598.4365
   1424.97437     752.7656     598.7700   1424.97437     752.7656     598.7700
   1424.95911     753.7218     600.8623   1424.95911     753.7218     600.8623
   1424.94385     754.1318     601.1310   1424.94385     754.1318     601.1310
   1424.92859     754.8433     602.0950   1424.92859     754.8433     602.0950
   1424.91333     754.8914     603.0690   1424.91333     754.8914     603.0690
   1424.89807     755.0425     604.1530   1424.89807     755.0425     604.1530
   1424.88281     755.3510     603.8159   1424.88281     755.3510     603.8159
   1424.86755     753.6389     605.6874   1424.86755     753.6389     605.6874
   1424.85229     755.0389     606.1775   1424.85229     755.0389     606.1775
   1424.83704     756.1506     606.8246   1424.83704     756.1506     606.8246
   1424.82178     756.9600     608.1992   1424.82178     756.9600     608.1992
   1424.80652     755.1882     608.3895   1424.80652     755.1882     608.3895
   1424.79126     755.5148     608.9478   1424.79126     755.5148     608.9478
   1424.77600     756.3600     609.7427   1424.77600     756.3600     609.7427
   1424.76074     755.8910     611.1777   1424.76074     755.8910     611.1777
   1424.74548     757.5888     611.9459   1424.74548     757.5888     611.9459
   1424.73022     757.6732     613.3141   1424.73022     757.6732     613.3141
   1424.71497     756.5638     613.1660   1424.71497     756.5638     613.1660
   1424.69971     755.2969     613.1392   1424.69971     755.2969     613.1392
   1424.68445     756.8448     614.6013   1424.68445     756.8448     614.6013
   1424.66919     755.9398     615.7138   1424.66919     755.9398     615.7138
   1424.65393     757.0002     615.6486   1424.65393     757.0002     615.6486
   1424.63867     757.5612     617.0883   1424.63867     757.5612     617.0883
   1424.62341     757.3078     617.7071   1424.62341     757.3078     617.7071
   1424.60815     756.3846     617.3659   1424.60815     756.3846     617.3659
   1424.59290     755.9543     618.1501   1424.59290     755.9543     618.1501
   1424.57764     755.3538     618.8747   1424.57764     755.3538     618.8747
   1424.56238     756.6071     620.7354   1424.56238     756.6071     620.7354
   1424.54712     756.1346     620.8499   1424.54712     756.1346     620.8499
   1424.53186     756.1260     621.3479   1424.53186     756.1260     621.3479
   1424.51660     756.9466     622.6723   1424.51660     756.9466     622.6723
   1424.50134     754.7205     622.5350   1424.50134     754.7205     622.5350
   1424.48608     755.8282     624.0114   1424.48608     755.8282     624.0114
   1424.47083     755.4752     624.4521   1424.47083     755.4752     624.4521
   1424.45557     755.8798     624.2269   1424.45557     755.8798     624.2269
   1424.44031     754.8838     625.7015   1424.44031     754.8838     625.7015
   1424.42505     754.9663     627.1093   1424.42505     754.9663     627.1093
   1424.40979     755.6085     626.8951   1424.40979     755.6085     626.8951
   1424.39453     755.0232     627.4281   1424.39453     755.0232     627.4281
   1424.37927     754.4712     627.4350   1424.37927     754.4712     627.4350
   1424.36401     753.6678     628.6200   1424.36401     753.6678     628.6200
   1424.34875     754.2715     629.2498   1424.34875     754.2715     629.2498
   1424.33350     754.2546     629.1680   1424.33350     754.2546     629.1680
   1424.31824     753.9706     630.0541   1424.31824     753.9706     630.0541
   1424.30298     752.8784     630.2610   1424.30298     752.8784     630.2610
   1424.28772     752.9191     631.0201   1424.28772     752.9191     631.0201
   1424.27246     752.6474     632.2579   1424.27246     752.6474     632.2579
   1424.25720     751.7556     632.2493   1424.25720     751.7556     632.2493
   1424.24194     753.2468     632.8519   1424.24194     753.2468     632.8519
   1424.22668     751.6747     633.1628   1424.22668     751.6747     633.1628
   1424.21143     752.3232     633.6599   1424.21143     752.3232     633.6599
   1424.19617     751.5247     633.2786   1424.19617     751.5247     633.2786
   1424.18091     752.1100     634.3782   1424.18091     752.1100     634.3782
   1424.16565     750.6472     635.8225   1424.16565     750.6472     635.8225
   1424.15039     749.9827     635.2256   1424.15039     749.9827     635.2256
   1424.13513     750.1990     636.4756   1424.13513     750.1990     636.4756
   1424.11987     751.0502     637.0728   1424.11987     751.0502     637.0728
   1424.10461     749.1423     637.7109   1424.10461     749.1423     637.7109
   1424.08936     749.9648     637.3155   1424.08936     749.9648     637.3155
   1424.07410     749.9681     638.0140   1424.07410     749.9681     638.0140
   1424.05884     748.5357     638.1025   1424.05884     748.5357     638.1025
   1424.04358     749.8602     638.9462   1424.04358     749.8602     638.9462
   1424.02832     748.7882     639.0382   1424.02832     748.7882     639.0382
   1424.01306     749.0582     640.1265   1424.01306     749.0582     640.1265
   1423.99780     747.8109     640.1568   1423.99780     747.8109     640.1568
   1423.98254     749.5031     640.6234   1423.98254     749.5031     640.6234
   1423.96729     746.5354     641.0109   1423.96729     746.5354     641.0109
   1423.95203     746.9503     641.1581   1423.95203     746.9503     641.1581
   1423.93677     748.0010     642.1030   1423.93677     748.0010     642.1030
   1423.92151     747.2960     642.0325   1423.92151     747.2960     642.0325
   1423.90625     746.6565     644.1752   1423.90625     746.6565     644.1752
   1423.89099     746.6678     642.5524   1423.89099     746.6678     642.5524
   1423.87573     746.1651     642.9986   1423.87573     746.1651     642.9986
   1423.86047     744.0663     643.1021   1423.86047     744.0663     643.1021
   1423.84521     745.5558     644.5606   1423.84521     745.5558     644.5606
   1423.82996     745.2740     645.3340   1423.82996     745.2740     645.3340
   1423.81470     744.1828     644.9658   1423.81470     744.1828     644.9658
   1423.79944     744.0450     644.1679   1423.79944     744.0450     644.1679
   1423.78418     743.8713     646.3613   1423.78418     743.8713     646.3613
   1423.76892     743.3087     645.1310   1423.76892     743.3087     645.1310
   1423.75366     743.7872     644.9284   1423.75366     743.7872     644.9284
   1423.73840     742.3077     646.7101   1423.73840     742.3077     646.7101
   1423.72314     742.5403     646.5580   1423.72314     742.5403     646.5580
   1423.70789     743.4959     646.7340   1423.70789     743.4959     646.7340
   1423.69263     742.2792     646.5977   1423.69263     742.2792     646.5977
   1423.67737     741.4540     647.0685   1423.67737     741.4540     647.0685
   1423.66211     740.5076     647.3644   1423.66211     740.5076     647.3644
   1423.64685     740.6674     647.0498   1423.64685     740.6674     647.0498
   1423.63159     740.9209     648.1461   1423.63159     740.9209     648.1461
   1423.61633     740.0231     647.8752   1423.61633     740.0231     647.8752
   1423.60107     739.3287     647.9905   1423.60107     739.3287     647.9905
   1423.58582     739.7965     648.4437   1423.58582     739.7965     648.4437
   1423.57056     740.1072     649.4864   1423.57056     740.1072     649.4864
   1423.55530     740.0947     649.6555   1423.55530     740.0947     649.6555
   1423.54004     740.2579     649.0848   1423.54004     740.2579     649.0848
   1423.52478     738.3085     648.7816   1423.52478     738.3085     648.7816
   1423.50952     739.1079     649.8324   1423.50952     739.1079     649.8324
   1423.49426     737.6560     648.6377   1423.49426     737.6560     648.6377
   1423.47900     738.3206     650.2420   1423.47900     738.3206     650.2420
   1423.46375     737.1823     650.2187   1423.46375     737.1823     650.2187
   1423.44849     736.3876     650.0167   1423.44849     736.3876     650.0167
   1423.43323     738.0931     649.9119   1423.43323     738.0931     649.9119
   1423.41797     737.0506     649.3788   1423.41797     737.0506     649.3788
   1423.40271     737.5796     648.6580   1423.40271     737.5796     648.6580
   1423.38745     736.7654     650.2085   1423.38745     736.7654     650.2085
   1423.37219     735.8937     650.8605   1423.37219     735.8937     650.8605
   1423.35693     736.3115     651.0630   1423.35693     736.3115     651.0630
   1423.34167     735.0510     650.3726   1423.34167     735.0510     650.3726
   1423.32642     735.8210     650.2258   1423.32642     735.8210     650.2258
   1423.31116     736.3090     650.0402   1423.31116     736.3090     650.0402
   1423.29590     733.1315     649.2505   1423.29590     733.1315     649.2505
   1423.28064     735.1104     650.4639   1423.28064     735.1104     650.4639
   1423.26538     734.3297     649.4521   1423.26538     734.3297     649.4521
   1423.25012     733.3886     650.0868   1423.25012     733.3886     650.0868
   1423.23486     734.3150     650.6691   1423.23486     734.3150     650.6691
   1423.21960     734.5999     650.2638   1423.21960     734.5999     650.2638
   1423.20435     733.7529     648.9667   1423.20435     733.7529     648.9667
   1423.18909     732.6562     648.8575   1423.18909     732.6562     648.8575
   1423.17383     732.3398     647.7493   1423.17383     732.3398     647.7493
   1423.15857     732.2842     648.9219   1423.15857     732.2842     648.9219
   1423.14331     732.9451     648.3770   1423.14331     732.9451     648.3770
   1423.12805     732.5736     647.6608   1423.12805     732.5736     647.6608
   1423.11279     732.2023     647.7297   1423.11279     732.2023     647.7297
   1423.09753     731.8784     647.8976   1423.09753     731.8784     647.8976
   1423.08228     731.9086     648.2070   1423.08228     731.9086     648.2070
   1423.06702     730.6460     646.8593   1423.06702     730.6460     646.8593
   1423.05176     730.2957     645.9281   1423.05176     730.2957     645.9281
   1423.03650     731.2050     646.2958   1423.03650     731.2050     646.2958
   1423.02124     730.4780     645.8773   1423.02124     730.4780     645.8773
   1423.00598     730.8746     645.9347   1423.00598     730.8746     645.9347
   1422.99072     728.7044     646.5316   1422.99072     728.7044     646.5316
   1422.97546     730.4359     644.0690   1422.97546     730.4359     644.0690
   1422.96021     730.9482     644.1252   1422.96021     730.9482     644.1252
   1422.94495     730.2732     644.2543   1422.94495     730.2732     644.2543
   1422.92969     729.1994     644.0858   1422.92969     729.1994     644.0858
   1422.91443     727.6761     642.1971   1422.91443     727.6761     642.1971
   1422.89917     729.3137     642.8668   1422.89917     729.3137     642.8668
   1422.88391     728.3942     642.6165   1422.88391     728.3942     642.6165
   1422.86865     728.6271     641.4703   1422.86865     728.6271     641.4703
   1422.85339     729.4874     641.6764   1422.85339     729.4874     641.6764
   1422.83813     728.6521     641.0804   1422.83813     728.6521     641.0804
   1422.82288     728.3942     639.9568   1422.82288     728.3942     639.9568
   1422.80762     728.1838     639.5794   1422.80762     728.1838     639.5794
   1422.79236     727.7556     639.0455   1422.79236     727.7556     639.0455
   1422.77710     727.6896     639.1529   1422.77710     727.6896     639.1529
   1422.76184     727.5848     638.5383   1422.76184     727.5848     638.5383
   1422.74658     726.1816     637.3873   1422.74658     726.1816     637.3873
   1422.73132     726.0421     637.1320   1422.73132     726.0421     637.1320
   1422.71606     725.5844     636.3444   1422.71606     725.5844     636.3444
   1422.70081     726.7574     635.6676   1422.70081     726.7574     635.6676
   1422.68555     726.4282     635.2191   1422.68555     726.4282     635.2191
   1422.67029     726.1683     633.7906   1422.67029     726.1683     633.7906
   1422.65503     725.4767     633.1085   1422.65503     725.4767     633.1085
   1422.63977     725.4537     633.3656   1422.63977     725.4537     633.3656
   1422.62451     724.5193     631.4184   1422.62451     724.5193     631.4184
   1422.60925     725.3154     631.2407   1422.60925     725.3154     631.2407
   1422.59399     726.0495     629.5232   1422.59399     726.0495     629.5232
   1422.57874     725.0250     630.0400   1422.57874     725.0250     630.0400
   1422.56348     723.8649     628.9365   1422.56348     723.8649     628.9365
   1422.54822     724.9965     627.8759   1422.54822     724.9965     627.8759
   1422.53296     724.9083     626.4785   1422.53296     724.9083     626.4785
   1422.51770     724.2366     626.6796   1422.51770     724.2366     626.6796
   1422.50244     723.9861     625.1738   1422.50244     723.9861     625.1738
   1422.48718     724.2833     623.6584   1422.48718     724.2833     623.6584
   1422.47192     724.3168     623.1407   1422.47192     724.3168     623.1407
   1422.45667     723.3171     622.5085   1422.45667     723.3171     622.5085
   1422.44141     723.3003     621.9313   1422.44141     723.3003     621.9313
   1422.42615     722.1909     620.3997   1422.42615     722.1909     620.3997
   1422.41089     721.9625     620.2031   1422.41089     721.9625     620.2031
   1422.39563     723.0011     618.7042   1422.39563     723.0011     618.7042
   1422.38037     722.1525     617.3536   1422.38037     722.1525     617.3536
   1422.36511     722.6487     615.5082   1422.36511     722.6487     615.5082
   1422.34985     722.0411     615.1455   1422.34985     722.0411     615.1455
   1422.33459     721.8624     614.7382   1422.33459     721.8624     614.7382
   1422.31934     720.9525     613.2307   1422.31934     720.9525     613.2307
   1422.30408     720.9913     611.7288   1422.30408     720.9913     611.7288
   1422.28882     720.9850     611.7758   1422.28882     720.9850     611.7758
   1422.27356     721.5509     610.7916   1422.27356     721.5509     610.7916
   1422.25830     721.4601     609.1027   1422.25830     721.4601     609.1027
   1422.24304     721.0475     608.6311   1422.24304     721.0475     608.6311
   1422.22778     720.3532     606.1826   1422.22778     720.3532     606.1826
   1422.21252     719.3690     605.8386   1422.21252     719.3690     605.8386
   1422.19727     720.2079     604.8505   1422.19727     720.2079     604.8505
   1422.18201     720.5717     604.2343   1422.18201     720.5717     604.2343
   1422.16675     720.5677     602.0003   1422.16675     720.5677     602.0003
   1422.15149     720.7895     600.4014   1422.15149     720.7895     600.4014
   1422.13623     720.4910     601.0988   1422.13623     720.4910     601.0988
   1422.12097     718.9076     599.1494   1422.12097     718.9076     599.1494
   1422.10571     718.6071     597.5984   1422.10571     718.6071     597.5984
   1422.09045     719.3937     595.9385   1422.09045     719.3937     595.9385
   1422.07520     718.5189     594.9792   1422.07520     718.5189     594.9792
   1422.05994     718.6221     593.9795   1422.05994     718.6221     593.9795
   1422.04468     718.6082     593.1337   1422.04468     718.6082     593.1337
   1422.02942     718.7063     591.3826   1422.02942     718.7063     591.3826
   1422.01416     718.7455     590.5998   1422.01416     718.7455     590.5998
   1421.99890     717.6360     589.7635   1421.99890     717.6360     589.7635
   1421.98364     716.7393     587.3460   1421.98364     716.7393     587.3460
   1421.96838     718.1530     586.5527   1421.96838     718.1530     586.5527
   1421.95312     717.1516     585.3094   1421.95312     717.1516     585.3094
   1421.93787     717.6892     583.8597   1421.93787     717.6892     583.8597
   1421.92261     716.8341     582.6530   1421.92261     716.8341     582.6530
   1421.90735     717.9088     581.0950   1421.90735     717.9088     581.0950
   1421.89209     716.9581     579.7642   1421.89209     716.9581     579.7642
   1421.87683     716.0938     579.3203   1421.87683     716.0938     579.3203
   1421.86157     715.6928     577.3725   1421.86157     715.6928     577.3725
   1421.84631     717.2775     576.2926   1421.84631     717.2775     576.2926
   1421.83105     716.4668     574.7523   1421.83105     716.4668     574.7523
   1421.81580     716.5323     574.0854   1421.81580     716.5323     574.0854
   1421.80054     716.0042     572.7355   1421.80054     716.0042     572.7355
   1421.78528     715.2070     570.8301   1421.78528     715.2070     570.8301
   1421.77002     716.1379     569.5522   1421.77002     716.1379     569.5522
   1421.75476     714.3346     568.4071   1421.75476     714.3346     568.4071
   1421.73950     715.8159     566.1522   1421.73950     715.8159     566.1522
   1421.72424     715.1118     565.8406   1421.72424     715.1118     565.8406
   1421.70898     714.6741     563.9658   1421.70898     714.6741     563.9658
   1421.69373     714.6845     562.6284   1421.69373     714.6845     562.6284
   1421.67847     714.7939     561.9680   1421.67847     714.7939     561.9680
   1421.66321     714.5038     559.7913   1421.66321     714.5038     559.7913
   1421.64795     713.7012     558.3468   1421.64795     713.7012     558.3468
   1421.63269     714.1401     557.3447   1421.63269     714.1401     557.3447
   1421.61743     714.6146     556.1993   1421.61743     714.6146     556.1993
   1421.60217     712.5931     553.6058   1421.60217     712.5931     553.6058
   1421.58691     713.6583     551.8583   1421.58691     713.6583     551.8583
   1421.57166     712.1630     551.1333   1421.57166     712.1630     551.1333
   1421.55640     712.4926     549.6378   1421.55640     712.4926     549.6378
   1421.54114     712.6666     548.1288   1421.54114     712.6666     548.1288
   1421.52588     712.3099     547.2332   1421.52588     712.3099     547.2332
   1421.51062     712.0280     545.7385   1421.51062     712.0280     545.7385
   1421.49536     712.4343     543.7996   1421.49536     712.4343     543.7996
   1421.48010     710.9202     542.9387   1421.48010     710.9202     542.9387
   1421.46484     711.0994     541.8524   1421.46484     711.0994     541.8524
   1421.44958     711.8350     540.6972   1421.44958     711.8350     540.6972
   1421.43433     710.0010     538.3041   1421.43433     710.0010     538.3041
   1421.41907     711.2091     537.4706   1421.41907     711.2091     537.4706
   1421.40381     710.5217     535.5735   1421.40381     710.5217     535.5735
   1421.38855     710.4176     535.1120   1421.38855     710.4176     535.1120
   1421.37329     711.3841     533.3725   1421.37329     711.3841     533.3725
   1421.35803     712.6637     532.8734   1421.35803     712.6637     532.8734
   1421.34277     711.0761     529.8073   1421.34277     711.0761     529.8073
   1421.32751     710.8114     528.9926   1421.32751     710.8114     528.9926
   1421.31226     710.5883     528.4116   1421.31226     710.5883     528.4116
   1421.29700     711.1671     527.3259   1421.29700     711.1671     527.3259
   1421.28174     709.4906     525.0745   1421.28174     709.4906     525.0745
   1421.26648     711.2402     524.7980   1421.26648     711.2402     524.7980
   1421.25122     710.2080     523.1306   1421.25122     710.2080     523.1306
   1421.23596     710.6516     521.8189   1421.23596     710.6516     521.8189
   1421.22070     710.9693     521.2094   1421.22070     710.9693     521.2094
   1421.20544     711.5148     520.0315   1421.20544     711.5148     520.0315
   1421.19019     713.1631     519.2934   1421.19019     713.1631     519.2934
   1421.17493     714.6834     520.2734   1421.17493     714.6834     520.2734
   1421.15967     716.9697     519.7146   1421.15967     716.9697     519.7146
   1421.14441     720.9029     523.0506   1421.14441     720.9029     523.0506
   1421.12915     727.6191     525.1840   1421.12915     727.6191     525.1840
   1421.11389     737.5769     531.6189   1421.11389     737.5769     531.6189
   1421.09863     751.4714     539.7271   1421.09863     751.4714     539.7271
   1421.08337     771.2603     551.9978   1421.08337     771.2603     551.9978
   1421.06812     795.2850     567.2745   1421.06812     795.2850     567.2745
   1421.05286     818.8364     582.2345   1421.05286     818.8364     582.2345
   1421.03760     839.1401     596.6602   1421.03760     839.1401     596.6602
   1421.02234     855.5788     605.6894   1421.02234     855.5788     605.6894
   1421.00708     864.1298     609.4694   1421.00708     864.1298     609.4694
   1420.99182     866.7920     610.3121   1420.99182     866.7920     610.3121
   1420.97656     874.8804     615.4890   1420.97656     874.8804     615.4890
   1420.96130     903.5681     634.5240   1420.96130     903.5681     634.5240
   1420.94604     981.2087     685.5138   1420.94604     981.2087     685.5138
   1420.93079    1064.4343     738.4918   1420.93079    1064.4343     738.4918
   1420.91553    1095.4307     756.4330   1420.91553    1095.4307     756.4330
   1420.90027    1177.8778     810.5399   1420.90027    1177.8778     810.5399
   1420.88501    1310.6002     896.0748   1420.88501    1310.6002     896.0748
   1420.86975    1398.2410     955.3492   1420.86975    1398.2410     955.3492
   1420.85449    1526.0457    1036.8738   1420.85449    1526.0457    1036.8738
   1420.83923    1706.5519    1153.2173   1420.83923    1706.5519    1153.2173
   1420.82397    1799.6516    1215.8850   1420.82397    1799.6516    1215.8850
   1420.80872    1804.3060    1213.5947   1420.80872    1804.3060    1213.5947
   1420.79346    1975.3055    1330.4476   1420.79346    1975.3055    1330.4476
   1420.77820    2132.5503    1426.6642   1420.77820    2132.5503    1426.6642
   1420.76294    2234.1487    1488.6958   1420.76294    2234.1487    1488.6958
   1420.74768    2276.0593    1515.3521   1420.74768    2276.0593    1515.3521
   1420.73242    2233.3997    1487.8051   1420.73242    2233.3997    1487.8051
   1420.71716    2017.4080    1337.5132   1420.71716    2017.4080    1337.5132
   1420.70190    1829.8667    1215.7720   1420.70190    1829.8667    1215.7720
   1420.68665    1660.7146    1100.2303   1420.68665    1660.7146    1100.2303
   1420.67139    1377.0131     912.4958   1420.67139    1377.0131     912.4958
   1420.65613    1207.4846     802.2413   1420.65613    1207.4846     802.2413
   1420.64087    1191.8628     791.9984   1420.64087    1191.8628     791.9984
   1420.62561    1232.8291     816.3205   1420.62561    1232.8291     816.3205
   1420.61035    1292.4689     851.4705   1420.61035    1292.4689     851.4705
   1420.59509    1518.9106     998.0286   1420.59509    1518.9106     998.0286
   1420.57983    1847.3491    1207.5188   1420.57983    1847.3491    1207.5188
   1420.56458    2000.7571    1303.9935   1420.56458    2000.7571    1303.9935
   1420.54932    1975.1102    1283.3954   1420.54932    1975.1102    1283.3954
   1420.53406    1828.9906    1188.0461   1420.53406    1828.9906    1188.0461
   1420.51880    1787.1216    1155.4149   1420.51880    1787.1216    1155.4149
   1420.50354    1683.1666    1086.0339   1420.50354    1683.1666    1086.0339
   1420.48828    1198.3375     775.4241   1420.48828    1198.3375     775.4241
   1420.47302     911.6647     593.8819   1420.47302     911.6647     593.8819
   1420.45776     806.6133     526.3942   1420.45776     806.6133     526.3942
   1420.44250     761.2203     496.0034   1420.44250     761.2203     496.0034
   1420.42725     737.6131     481.2029   1420.42725     737.6131     481.2029
   1420.41199     724.1044     471.5656   1420.41199     724.1044     471.5656
   1420.39673     717.2057     466.4868   1420.39673     717.2057     466.4868
   1420.38147     711.0415     461.6822   1420.38147     711.0415     461.6822
   1420.36621     709.5317     459.3485   1420.36621     709.5317     459.3485
   1420.35095     710.4724     458.0184   1420.35095     710.4724     458.0184
   1420.33569     707.1533     457.3460   1420.33569     707.1533     457.3460
   1420.32043     708.1179     456.2691   1420.32043     708.1179     456.2691
   1420.30518     707.0336     454.6893   1420.30518     707.0336     454.6893
   1420.28992     706.3167     453.6963   1420.28992     706.3167     453.6963
   1420.27466     706.1370     452.6473   1420.27466     706.1370     452.6473
   1420.25940     706.2435     451.4124   1420.25940     706.2435     451.4124
   1420.24414     706.3952     449.4001   1420.24414     706.3952     449.4001
   1420.22888     705.2315     449.8366   1420.22888     705.2315     449.8366
   1420.21362     703.9820     448.1028   1420.21362     703.9820     448.1028
   1420.19836     704.4135     446.9683   1420.19836     704.4135     446.9683
   1420.18311     703.0109     445.5074   1420.18311     703.0109     445.5074
   1420.16785     701.7890     443.8992   1420.16785     701.7890     443.8992
   1420.15259     701.1012     443.2896   1420.15259     701.1012     443.2896
   1420.13733     699.6066     442.5103   1420.13733     699.6066     442.5103
   1420.12207     700.4268     441.1997   1420.12207     700.4268     441.1997
   1420.10681     699.0862     440.7068   1420.10681     699.0862     440.7068
   1420.09155     698.6689     439.2785   1420.09155     698.6689     439.2785
   1420.07629     698.3676     438.3760   1420.07629     698.3676     438.3760
   1420.06104     697.6475     438.1829   1420.06104     697.6475     438.1829
   1420.04578     698.2365     436.4698   1420.04578     698.2365     436.4698
   1420.03052     698.2778     436.2541   1420.03052     698.2778     436.2541
   1420.01526     698.9432     436.5620   1420.01526     698.9432     436.5620
   1420.00000     699.4453     436.4284   1420.00000     699.4453     436.4284
   1419.98474     699.9473     436.2947   1419.98474     699.9473     436.2947
   1419.96948     699.8144     434.0702   1419.96948     699.8144     434.0702
   1419.95422     698.2528     432.3018   1419.95422     698.2528     432.3018
   1419.93896     697.8202     431.5505   1419.93896     697.8202     431.5505
   1419.92371     698.2514     431.6827   1419.92371     698.2514     431.6827
   1419.90845     697.0932     430.9948   1419.90845     697.0932     430.9948
   1419.89319     697.4427     429.0783   1419.89319     697.4427     429.0783
   1419.87793     698.3721     429.7805   1419.87793     698.3721     429.7805
   1419.86267     699.0264     429.3084   1419.86267     699.0264     429.3084
   1419.84741     699.2363     429.0717   1419.84741     699.2363     429.0717
   1419.83215     698.6696     427.8655   1419.83215     698.6696     427.8655
   1419.81689     700.4815     428.2219   1419.81689     700.4815     428.2219
   1419.80164     698.8809     427.5132   1419.80164     698.8809     427.5132
   1419.78638     699.7796     428.1673   1419.78638     699.7796     428.1673
   1419.77112     699.6021     426.7840   1419.77112     699.6021     426.7840
   1419.75586     699.9607     426.5315   1419.75586     699.9607     426.5315
   1419.74060     700.7194     425.8434   1419.74060     700.7194     425.8434
   1419.72534     700.5235     425.6217   1419.72534     700.5235     425.6217
   1419.71008     701.4210     425.6552   1419.71008     701.4210     425.6552
   1419.69482     701.5483     425.6158   1419.69482     701.5483     425.6158
   1419.67957     702.6378     424.7831   1419.67957     702.6378     424.7831
   1419.66431     701.9595     425.4342   1419.66431     701.9595     425.4342
   1419.64905     703.0491     424.5175   1419.64905     703.0491     424.5175
   1419.63379     702.3115     424.4733   1419.63379     702.3115     424.4733
   1419.61853     703.8929     424.5031   1419.61853     703.8929     424.5031
   1419.60327     702.7764     424.4243   1419.60327     702.7764     424.4243
   1419.58801     702.2001     424.3058   1419.58801     702.2001     424.3058
   1419.57275     703.3456     424.3127   1419.57275     703.3456     424.3127
   1419.55750     704.5380     423.8885   1419.55750     704.5380     423.8885
   1419.54224     703.3412     423.8240   1419.54224     703.3412     423.8240
   1419.52698     704.9432     422.7582   1419.52698     704.9432     422.7582
   1419.51172     704.7185     423.2434   1419.51172     704.7185     423.2434
   1419.49646     705.2231     422.5716   1419.49646     705.2231     422.5716
   1419.48120     705.7690     422.4702   1419.48120     705.7690     422.4702
   1419.46594     707.2617     422.0634   1419.46594     707.2617     422.0634
   1419.45068     706.6891     422.6735   1419.45068     706.6891     422.6735
   1419.43542     706.8342     422.3209   1419.43542     706.8342     422.3209
   1419.42017     708.0375     422.3761   1419.42017     708.0375     422.3761
   1419.40491     707.6500     422.5131   1419.40491     707.6500     422.5131
   1419.38965     708.1933     421.8321   1419.38965     708.1933     421.8321
   1419.37439     707.6806     422.0989   1419.37439     707.6806     422.0989
   1419.35913     708.6210     421.3439   1419.35913     708.6210     421.3439
   1419.34387     710.0145     422.1622   1419.34387     710.0145     422.1622
   1419.32861     709.8298     422.4666   1419.32861     709.8298     422.4666
   1419.31335     710.4014     421.5912   1419.31335     710.4014     421.5912
   1419.29810     711.5922     422.6515   1419.29810     711.5922     422.6515
   1419.28284     711.2066     422.1843   1419.28284     711.2066     422.1843
   1419.26758     713.7440     422.3379   1419.26758     713.7440     422.3379
   1419.25232     712.9607     422.2893   1419.25232     712.9607     422.2893
   1419.23706     713.0870     422.7323   1419.23706     713.0870     422.7323
   1419.22180     712.8338     422.5175   1419.22180     712.8338     422.5175
   1419.20654     714.3580     423.1568   1419.20654     714.3580     423.1568
   1419.19128     713.6417     423.0165   1419.19128     713.6417     423.0165
   1419.17603     714.5074     423.4746   1419.17603     714.5074     423.4746
   1419.16077     716.6186     423.2497   1419.16077     716.6186     423.2497
   1419.14551     714.9819     423.0988   1419.14551     714.9819     423.0988
   1419.13025     717.6205     423.9246   1419.13025     717.6205     423.9246
   1419.11499     717.4926     423.3679   1419.11499     717.4926     423.3679
   1419.09973     717.1156     423.9060   1419.09973     717.1156     423.9060
   1419.08447     717.9495     423.9297   1419.08447     717.9495     423.9297
   1419.06921     718.5129     424.2330   1419.06921     718.5129     424.2330
   1419.05396     719.7328     424.7963   1419.05396     719.7328     424.7963
   1419.03870     719.8919     425.3258   1419.03870     719.8919     425.3258
   1419.02344     720.1263     424.7908   1419.02344     720.1263     424.7908
   1419.00818     721.0460     425.9503   1419.00818     721.0460     425.9503
   1418.99292     721.8051     426.3830   1418.99292     721.8051     426.3830
   1418.97766     723.0314     425.4740   1418.97766     723.0314     425.4740
   1418.96240     722.2988     426.8130   1418.96240     722.2988     426.8130
   1418.94714     724.3910     426.2796   1418.94714     724.3910     426.2796
   1418.93188     725.7048     426.9568   1418.93188     725.7048     426.9568
   1418.91663     724.6114     427.6923   1418.91663     724.6114     427.6923
   1418.90137     724.1589     427.6920   1418.90137     724.1589     427.6920
   1418.88611     726.6424     428.0302   1418.88611     726.6424     428.0302
   1418.87085     728.2126     428.1232   1418.87085     728.2126     428.1232
   1418.85559     727.7266     428.6560   1418.85559     727.7266     428.6560
   1418.84033     727.7982     429.0353   1418.84033     727.7982     429.0353
   1418.82507     729.6620     430.0631   1418.82507     729.6620     430.0631
   1418.80981     727.9631     430.0091   1418.80981     727.9631     430.0091
   1418.79456     730.6727     429.8747   1418.79456     730.6727     429.8747
   1418.77930     732.0882     431.2352   1418.77930     732.0882     431.2352
   1418.76404     730.5309     431.9386   1418.76404     730.5309     431.9386
   1418.74878     731.4358     432.1392   1418.74878     731.4358     432.1392
   1418.73352     732.5803     432.5444   1418.73352     732.5803     432.5444
   1418.71826     732.7397     433.0498   1418.71826     732.7397     433.0498
   1418.70300     733.3759     433.4450   1418.70300     733.3759     433.4450
   1418.68774     734.3947     433.6127   1418.68774     734.3947     433.6127
   1418.67249     735.4244     433.5195   1418.67249     735.4244     433.5195
   1418.65723     737.4344     434.7800   1418.65723     737.4344     434.7800
   1418.64197     738.2037     435.1646   1418.64197     738.2037     435.1646
   1418.62671     737.9431     435.9953   1418.62671     737.9431     435.9953
   1418.61145     737.4998     437.1693   1418.61145     737.4998     437.1693
   1418.59619     739.9669     437.2401   1418.59619     739.9669     437.2401
   1418.58093     740.3631     437.9897   1418.58093     740.3631     437.9897
   1418.56567     740.3049     437.8738   1418.56567     740.3049     437.8738
   1418.55042     742.4825     438.4799   1418.55042     742.4825     438.4799
   1418.53516     742.6723     439.4385   1418.53516     742.6723     439.4385
   1418.51990     742.8281     439.9712   1418.51990     742.8281     439.9712
   1418.50464     745.1034     441.6869   1418.50464     745.1034     441.6869
   1418.48938     745.1614     441.1624   1418.48938     745.1614     441.1624
   1418.47412     745.2804     441.4819   1418.47412     745.2804     441.4819
   1418.45886     746.2841     442.6113   1418.45886     746.2841     442.6113
   1418.44360     747.3197     443.4615   1418.44360     747.3197     443.4615
   1418.42834     748.2593     444.1297   1418.42834     748.2593     444.1297
   1418.41309     747.4651     444.8765   1418.41309     747.4651     444.8765
   1418.39783     750.7018     445.3384   1418.39783     750.7018     445.3384
   1418.38257     751.8781     446.1517   1418.38257     751.8781     446.1517
   1418.36731     751.5807     447.0482   1418.36731     751.5807     447.0482
   1418.35205     752.6731     447.6391   1418.35205     752.6731     447.6391
   1418.33679     753.8839     448.5235   1418.33679     753.8839     448.5235
   1418.32153     754.2996     448.9327   1418.32153     754.2996     448.9327
   1418.30627     755.7233     450.2485   1418.30627     755.7233     450.2485
   1418.29102     756.0952     450.3695   1418.29102     756.0952     450.3695
   1418.27576     756.6495     451.2363   1418.27576     756.6495     451.2363
   1418.26050     756.9052     451.6364   1418.26050     756.9052     451.6364
   1418.24524     758.1548     451.9886   1418.24524     758.1548     451.9886
   1418.22998     759.4673     453.1420   1418.22998     759.4673     453.1420
   1418.21472     759.9614     454.7225   1418.21472     759.9614     454.7225
   1418.19946     760.6439     455.1355   1418.19946     760.6439     455.1355
   1418.18420     761.3761     456.1695   1418.18420     761.3761     456.1695
   1418.16895     763.4910     457.0272   1418.16895     763.4910     457.0272
   1418.15369     763.3430     457.4361   1418.15369     763.3430     457.4361
   1418.13843     764.5273     458.4382   1418.13843     764.5273     458.4382
   1418.12317     765.6534     458.8621   1418.12317     765.6534     458.8621
   1418.10791     767.0691     459.9046   1418.10791     767.0691     459.9046
   1418.09265     767.2015     460.3742   1418.09265     767.2015     460.3742
   1418.07739     767.1152     461.2286   1418.07739     767.1152     461.2286
   1418.06213     768.5193     463.7928   1418.06213     768.5193     463.7928
   1418.04688     769.8196     463.8387   1418.04688     769.8196     463.8387
   1418.03162     771.1772     464.1376   1418.03162     771.1772     464.1376
   1418.01636     770.7496     465.0682   1418.01636     770.7496     465.0682
   1418.00110     772.3068     465.4592   1418.00110     772.3068     465.4592
   1417.98584     774.0753     467.6527   1417.98584     774.0753     467.6527
   1417.97058     774.7911     467.2944   1417.97058     774.7911     467.2944
   1417.95532     774.8685     467.9121   1417.95532     774.8685     467.9121
   1417.94006     777.9361     469.1399   1417.94006     777.9361     469.1399
   1417.92480     778.0421     470.4996   1417.92480     778.0421     470.4996
   1417.90955     778.2582     471.3102   1417.90955     778.2582     471.3102
   1417.89429     778.2241     473.0112   1417.89429     778.2241     473.0112
   1417.87903     780.3885     473.3136   1417.87903     780.3885     473.3136
   1417.86377     780.9630     473.5681   1417.86377     780.9630     473.5681
   1417.84851     781.8327     474.9532   1417.84851     781.8327     474.9532
   1417.83325     783.2812     475.8554   1417.83325     783.2812     475.8554
   1417.81799     783.9498     476.4224   1417.81799     783.9498     476.4224
   1417.80273     785.0898     476.5353   1417.80273     785.0898     476.5353
   1417.78748     785.6680     477.9500   1417.78748     785.6680     477.9500
   1417.77222     786.9041     480.0695   1417.77222     786.9041     480.0695
   1417.75696     788.1122     480.0593   1417.75696     788.1122     480.0593
   1417.74170     788.9694     482.0022   1417.74170     788.9694     482.0022
   1417.72644     789.4565     481.7585   1417.72644     789.4565     481.7585
   1417.71118     791.9698     483.0368   1417.71118     791.9698     483.0368
   1417.69592     791.6373     484.2915   1417.69592     791.6373     484.2915
   1417.68066     793.3099     485.4410   1417.68066     793.3099     485.4410
   1417.66541     793.9531     485.9903   1417.66541     793.9531     485.9903
   1417.65015     794.4243     486.4684   1417.65015     794.4243     486.4684
   1417.63489     795.0157     487.4154   1417.63489     795.0157     487.4154
   1417.61963     796.2988     488.2384   1417.61963     796.2988     488.2384
   1417.60437     797.4651     489.7798   1417.60437     797.4651     489.7798
   1417.58911     797.5099     489.9102   1417.58911     797.5099     489.9102
   1417.57385     797.6554     491.5198   1417.57385     797.6554     491.5198
   1417.55859     799.7786     492.3422   1417.55859     799.7786     492.3422
   1417.54333     800.0280     493.4117   1417.54333     800.0280     493.4117
   1417.52808     802.1596     494.1888   1417.52808     802.1596     494.1888
   1417.51282     804.0823     494.5713   1417.51282     804.0823     494.5713
   1417.49756     804.2444     495.6002   1417.49756     804.2444     495.6002
   1417.48230     803.6677     496.4726   1417.48230     803.6677     496.4726
   1417.46704     804.4437     496.2333   1417.46704     804.4437     496.2333
   1417.45178     806.8315     497.6562   1417.45178     806.8315     497.6562
   1417.43652     807.2110     498.6906   1417.43652     807.2110     498.6906
   1417.42126     807.5304     499.6727   1417.42126     807.5304     499.6727
   1417.40601     807.2942     500.5361   1417.40601     807.2942     500.5361
   1417.39075     809.7137     500.8080   1417.39075     809.7137     500.8080
   1417.37549     809.8734     502.1797   1417.37549     809.8734     502.1797
   1417.36023     811.3281     503.6872   1417.36023     811.3281     503.6872
   1417.34497     812.3990     504.4716   1417.34497     812.3990     504.4716
   1417.32971     812.3561     504.6508   1417.32971     812.3561     504.6508
   1417.31445     812.9692     505.5802   1417.31445     812.9692     505.5802
   1417.29919     814.2338     506.3608   1417.29919     814.2338     506.3608
   1417.28394     814.7600     507.4448   1417.28394     814.7600     507.4448
   1417.26868     815.2990     508.5095   1417.26868     815.2990     508.5095
   1417.25342     816.8103     508.4750   1417.25342     816.8103     508.4750
   1417.23816     816.7021     508.7864   1417.23816     816.7021     508.7864
   1417.22290     819.0433     509.8922   1417.22290     819.0433     509.8922
   1417.20764     818.6231     510.2981   1417.20764     818.6231     510.2981
   1417.19238     819.0849     511.3506   1417.19238     819.0849     511.3506
   1417.17712     819.7515     512.0269   1417.17712     819.7515     512.0269
   1417.16187     820.6942     512.9233   1417.16187     820.6942     512.9233
   1417.14661     821.0850     512.7964   1417.14661     821.0850     512.7964
   1417.13135     820.8946     514.3047   1417.13135     820.8946     514.3047
   1417.11609     821.5106     514.9300   1417.11609     821.5106     514.9300
   1417.10083     823.2439     515.8603   1417.10083     823.2439     515.8603
   1417.08557     824.4585     516.2719   1417.08557     824.4585     516.2719
   1417.07031     825.3433     517.5262   1417.07031     825.3433     517.5262
   1417.05505     824.6018     516.6848   1417.05505     824.6018     516.6848
   1417.03979     824.4937     517.0345   1417.03979     824.4937     517.0345
   1417.02454     826.2739     518.3353   1417.02454     826.2739     518.3353
   1417.00928     827.7247     518.8066   1417.00928     827.7247     518.8066
   1416.99402     827.3246     519.7145   1416.99402     827.3246     519.7145
   1416.97876     827.0978     519.6279   1416.97876     827.0978     519.6279
   1416.96350     827.8409     520.0651   1416.96350     827.8409     520.0651
   1416.94824     829.3805     521.1357   1416.94824     829.3805     521.1357
   1416.93298     828.9601     521.9891   1416.93298     828.9601     521.9891
   1416.91772     828.4572     522.5237   1416.91772     828.4572     522.5237
   1416.90247     830.1261     523.0148   1416.90247     830.1261     523.0148
   1416.88721     830.8237     522.9825   1416.88721     830.8237     522.9825
   1416.87195     829.0066     522.8170   1416.87195     829.0066     522.8170
   1416.85669     832.6373     524.3577   1416.85669     832.6373     524.3577
   1416.84143     832.1723     524.6937   1416.84143     832.1723     524.6937
   1416.82617     832.8676     524.6022   1416.82617     832.8676     524.6022
   1416.81091     832.7415     524.5175   1416.81091     832.7415     524.5175
   1416.79565     833.0944     525.2133   1416.79565     833.0944     525.2133
   1416.78040     833.1188     525.5333   1416.78040     833.1188     525.5333
   1416.76514     833.9039     525.5569   1416.76514     833.9039     525.5569
   1416.74988     832.2878     526.1296   1416.74988     832.2878     526.1296
   1416.73462     834.1630     525.7613   1416.73462     834.1630     525.7613
   1416.71936     834.0652     526.4727   1416.71936     834.0652     526.4727
   1416.70410     834.8057     527.1788   1416.70410     834.8057     527.1788
   1416.68884     833.9561     527.0074   1416.68884     833.9561     527.0074
   1416.67358     834.8822     527.5312   1416.67358     834.8822     527.5312
   1416.65833     835.3524     526.9227   1416.65833     835.3524     526.9227
   1416.64307     835.0978     526.9908   1416.64307     835.0978     526.9908
   1416.62781     834.7837     527.7484   1416.62781     834.7837     527.7484
   1416.61255     834.9551     527.4948   1416.61255     834.9551     527.4948
   1416.59729     834.6924     527.3903   1416.59729     834.6924     527.3903
   1416.58203     834.8795     528.0527   1416.58203     834.8795     528.0527
   1416.56677     836.4371     527.3866   1416.56677     836.4371     527.3866
   1416.55151     836.5631     527.3934   1416.55151     836.5631     527.3934
   1416.53625     836.4993     527.0920   1416.53625     836.4993     527.0920
   1416.52100     836.0653     527.6018   1416.52100     836.0653     527.6018
   1416.50574     836.3303     527.1885   1416.50574     836.3303     527.1885
   1416.49048     835.2789     527.4665   1416.49048     835.2789     527.4665
   1416.47522     836.2267     526.6606   1416.47522     836.2267     526.6606
   1416.45996     835.1162     527.7029   1416.45996     835.1162     527.7029
   1416.44470     837.1879     527.1375   1416.44470     837.1879     527.1375
   1416.42944     836.7039     526.6530   1416.42944     836.7039     526.6530
   1416.41418     834.8627     526.8514   1416.41418     834.8627     526.8514
   1416.39893     833.4765     526.1021   1416.39893     833.4765     526.1021
   1416.38367     835.9490     526.6094   1416.38367     835.9490     526.6094
   1416.36841     836.3192     525.9153   1416.36841     836.3192     525.9153
   1416.35315     835.9770     526.2780   1416.35315     835.9770     526.2780
   1416.33789     834.4017     526.5515   1416.33789     834.4017     526.5515
   1416.32263     834.3568     526.0231   1416.32263     834.3568     526.0231
   1416.30737     834.3045     524.8759   1416.30737     834.3045     524.8759
   1416.29211     832.9015     525.0991   1416.29211     832.9015     525.0991
   1416.27686     832.8890     524.8155   1416.27686     832.8890     524.8155
   1416.26160     833.9721     524.5659   1416.26160     833.9721     524.5659
   1416.24634     834.1295     524.6603   1416.24634     834.1295     524.6603
   1416.23108     833.3245     523.7434   1416.23108     833.3245     523.7434
   1416.21582     832.6866     523.4983   1416.21582     832.6866     523.4983
   1416.20056     831.5529     523.4354   1416.20056     831.5529     523.4354
   1416.18530     831.3746     522.1530   1416.18530     831.3746     522.1530
   1416.17004     831.6612     521.7249   1416.17004     831.6612     521.7249
   1416.15479     830.7495     521.7190   1416.15479     830.7495     521.7190
   1416.13953     831.2504     520.8359   1416.13953     831.2504     520.8359
   1416.12427     830.6100     521.2804   1416.12427     830.6100     521.2804
   1416.10901     829.4632     521.3172   1416.10901     829.4632     521.3172
   1416.09375     829.2594     519.9005   1416.09375     829.2594     519.9005
   1416.07849     828.0263     519.8505   1416.07849     828.0263     519.8505
   1416.06323     828.3411     519.8522   1416.06323     828.3411     519.8522
   1416.04797     828.3563     518.9343   1416.04797     828.3563     518.9343
   1416.03271     826.0946     517.7952   1416.03271     826.0946     517.7952
   1416.01746     826.8881     518.3438   1416.01746     826.8881     518.3438
   1416.00220     824.6198     517.6321   1416.00220     824.6198     517.6321
   1415.98694     825.9443     517.0513   1415.98694     825.9443     517.0513
   1415.97168     826.0902     516.4980   1415.97168     826.0902     516.4980
   1415.95642     824.1704     516.6722   1415.95642     824.1704     516.6722
   1415.94116     824.2508     515.4102   1415.94116     824.2508     515.4102
   1415.92590     823.0878     515.1258   1415.92590     823.0878     515.1258
   1415.91064     821.5925     513.9352   1415.91064     821.5925     513.9352
   1415.89539     821.4895     514.6746   1415.89539     821.4895     514.6746
   1415.88013     822.0892     513.8912   1415.88013     822.0892     513.8912
   1415.86487     820.3669     512.9935   1415.86487     820.3669     512.9935
   1415.84961     819.5336     512.8551   1415.84961     819.5336     512.8551
   1415.83435     819.3278     511.2719   1415.83435     819.3278     511.2719
   1415.81909     817.5176     511.2805   1415.81909     817.5176     511.2805
   1415.80383     817.7856     511.1051   1415.80383     817.7856     511.1051
   1415.78857     817.6530     510.6330   1415.78857     817.6530     510.6330
   1415.77332     816.0197     509.8530   1415.77332     816.0197     509.8530
   1415.75806     814.3195     509.2219   1415.75806     814.3195     509.2219
   1415.74280     813.9547     509.3297   1415.74280     813.9547     509.3297
   1415.72754     813.9537     508.2027   1415.72754     813.9537     508.2027
   1415.71228     812.2745     508.1851   1415.71228     812.2745     508.1851
   1415.69702     812.0521     506.2525   1415.69702     812.0521     506.2525
   1415.68176     810.8758     506.1526   1415.68176     810.8758     506.1526
   1415.66650     810.2559     505.7442   1415.66650     810.2559     505.7442
   1415.65125     808.9480     504.7467   1415.65125     808.9480     504.7467
   1415.63599     808.9209     504.5232   1415.63599     808.9209     504.5232
   1415.62073     807.2383     503.9902   1415.62073     807.2383     503.9902
   1415.60547     806.7221     503.4337   1415.60547     806.7221     503.4337
   1415.59021     805.0750     503.5414   1415.59021     805.0750     503.5414
   1415.57495     805.0331     502.1212   1415.57495     805.0331     502.1212
   1415.55969     803.7853     502.2788   1415.55969     803.7853     502.2788
   1415.54443     803.0038     500.9088   1415.54443     803.0038     500.9088
   1415.52917     801.2977     500.7670   1415.52917     801.2977     500.7670
   1415.51392     800.6733     499.5443   1415.51392     800.6733     499.5443
   1415.49866     798.7903     499.5540   1415.49866     798.7903     499.5540
   1415.48340     798.9241     498.5101   1415.48340     798.9241     498.5101
   1415.46814     798.3564     497.8311   1415.46814     798.3564     497.8311
   1415.45288     796.0580     497.7311   1415.45288     796.0580     497.7311
   1415.43762     795.9669     496.5209   1415.43762     795.9669     496.5209
   1415.42236     793.7773     495.9771   1415.42236     793.7773     495.9771
   1415.40710     793.1465     494.6668   1415.40710     793.1465     494.6668
   1415.39185     791.6649     494.5826   1415.39185     791.6649     494.5826
   1415.37659     789.5524     494.4910   1415.37659     789.5524     494.4910
   1415.36133     789.2946     492.9852   1415.36133     789.2946     492.9852
   1415.34607     789.0208     493.4145   1415.34607     789.0208     493.4145
   1415.33081     787.4836     492.0049   1415.33081     787.4836     492.0049
   1415.31555     785.4445     490.1644   1415.31555     785.4445     490.1644
   1415.30029     784.8141     489.3997   1415.30029     784.8141     489.3997
   1415.28503     782.9811     490.5272   1415.28503     782.9811     490.5272
   1415.26978     781.0752     487.9308   1415.26978     781.0752     487.9308
   1415.25452     782.1957     487.6011   1415.25452     782.1957     487.6011
   1415.23926     779.2606     487.2639   1415.23926     779.2606     487.2639
   1415.22400     777.6738     486.8481   1415.22400     777.6738     486.8481
   1415.20874     776.6524     486.2251   1415.20874     776.6524     486.2251
   1415.19348     776.1083     485.1711   1415.19348     776.1083     485.1711
   1415.17822     776.4394     485.0056   1415.17822     776.4394     485.0056
   1415.16296     771.7023     483.0758   1415.16296     771.7023     483.0758
   1415.14771     771.6177     483.1013   1415.14771     771.6177     483.1013
   1415.13245     770.1179     482.0726   1415.13245     770.1179     482.0726
   1415.11719     767.4254     481.3491   1415.11719     767.4254     481.3491
   1415.10193     766.8160     479.9318   1415.10193     766.8160     479.9318
   1415.08667     765.5798     479.1570   1415.08667     765.5798     479.1570
   1415.07141     762.5532     478.8819   1415.07141     762.5532     478.8819
   1415.05615     761.9562     477.4133   1415.05615     761.9562     477.4133
   1415.04089     760.8928     476.9733   1415.04089     760.8928     476.9733
   1415.02563     759.5730     475.9799   1415.02563     759.5730     475.9799
   1415.01038     757.7051     476.2574   1415.01038     757.7051     476.2574
   1414.99512     754.6221     473.9346   1414.99512     754.6221     473.9346
   1414.97986     754.1616     472.9284   1414.97986     754.1616     472.9284
   1414.96460     750.5537     472.4185   1414.96460     750.5537     472.4185
   1414.94934     750.6680     471.6176   1414.94934     750.6680     471.6176
   1414.93408     748.1246     470.1181   1414.93408     748.1246     470.1181
   1414.91882     745.8460     469.6953   1414.91882     745.8460     469.6953
   1414.90356     744.4400     469.3480   1414.90356     744.4400     469.3480
   1414.88831     742.3878     467.3957   1414.88831     742.3878     467.3957
   1414.87305     741.4165     467.0456   1414.87305     741.4165     467.0456
   1414.85779     740.0024     465.8796   1414.85779     740.0024     465.8796
   1414.84253     737.8626     464.9921   1414.84253     737.8626     464.9921
   1414.82727     735.9037     464.7538   1414.82727     735.9037     464.7538
   1414.81201     733.6930     463.1425   1414.81201     733.6930     463.1425
   1414.79675     731.7574     461.8504   1414.79675     731.7574     461.8504
   1414.78149     730.1050     461.0613   1414.78149     730.1050     461.0613
   1414.76624     727.7609     460.0877   1414.76624     727.7609     460.0877
   1414.75098     725.0988     459.1075   1414.75098     725.0988     459.1075
   1414.73572     723.8563     458.4731   1414.73572     723.8563     458.4731
   1414.72046     721.1332     456.8163   1414.72046     721.1332     456.8163
   1414.70520     720.1561     455.1321   1414.70520     720.1561     455.1321
   1414.68994     717.0781     454.6370   1414.68994     717.0781     454.6370
   1414.67468     715.1104     454.1912   1414.67468     715.1104     454.1912
   1414.65942     713.2813     453.4754   1414.65942     713.2813     453.4754
   1414.64417     710.9464     451.5283   1414.64417     710.9464     451.5283
   1414.62891     708.4906     450.2944   1414.62891     708.4906     450.2944
   1414.61365     706.0660     449.8404   1414.61365     706.0660     449.8404
   1414.59839     703.4034     448.1509   1414.59839     703.4034     448.1509
   1414.58313     702.4952     446.8638   1414.58313     702.4952     446.8638
   1414.56787     699.3969     446.0479   1414.56787     699.3969     446.0479
   1414.55261     698.0791     444.3387   1414.55261     698.0791     444.3387
   1414.53735     694.9122     443.3273   1414.53735     694.9122     443.3273
   1414.52209     692.5508     442.4946   1414.52209     692.5508     442.4946
   1414.50684     691.3968     440.5356   1414.50684     691.3968     440.5356
   1414.49158     688.7609     439.8908   1414.49158     688.7609     439.8908
   1414.47632     687.2787     438.9344   1414.47632     687.2787     438.9344
   1414.46106     683.7786     438.0119   1414.46106     683.7786     438.0119
   1414.44580     680.6920     436.9381   1414.44580     680.6920     436.9381
   1414.43054     677.7306     435.0721   1414.43054     677.7306     435.0721
   1414.41528     676.1372     433.8886   1414.41528     676.1372     433.8886
   1414.40002     673.1575     432.7614   1414.40002     673.1575     432.7614
   1414.38477     671.0443     430.5536   1414.38477     671.0443     430.5536
   1414.36951     667.4326     429.5343   1414.36951     667.4326     429.5343
   1414.35425     664.9503     428.6465   1414.35425     664.9503     428.6465
   1414.33899     663.9875     427.5444   1414.33899     663.9875     427.5444
   1414.32373     659.9020     426.3067   1414.32373     659.9020     426.3067
   1414.30847     658.4363     424.8944   1414.30847     658.4363     424.8944
   1414.29321     655.1374     423.1065   1414.29321     655.1374     423.1065
   1414.27795     653.3398     421.7613   1414.27795     653.3398     421.7613
   1414.26270     650.8138     420.3210   1414.26270     650.8138     420.3210
   1414.24744     647.5297     419.3410   1414.24744     647.5297     419.3410
   1414.23218     644.1461     417.0413   1414.23218     644.1461     417.0413
   1414.21692     641.8083     416.3255   1414.21692     641.8083     416.3255
   1414.20166     639.6791     415.3654   1414.20166     639.6791     415.3654
   1414.18640     637.3959     413.8958   1414.18640     637.3959     413.8958
   1414.17114     633.8633     411.8447   1414.17114     633.8633     411.8447
   1414.15588     630.8277     410.8577   1414.15588     630.8277     410.8577
   1414.14062     627.4520     409.1749   1414.14062     627.4520     409.1749
   1414.12537     625.9446     408.0119   1414.12537     625.9446     408.0119
   1414.11011     622.6691     406.6730   1414.11011     622.6691     406.6730
   1414.09485     620.0782     405.5744   1414.09485     620.0782     405.5744
   1414.07959     616.7405     403.9323   1414.07959     616.7405     403.9323
   1414.06433     614.1865     402.2195   1414.06433     614.1865     402.2195
   1414.04907     612.2804     400.7916   1414.04907     612.2804     400.7916
   1414.03381     608.2595     398.9510   1414.03381     608.2595     398.9510
   1414.01855     605.5793     397.4403   1414.01855     605.5793     397.4403
   1414.00330     626.4852     402.8917   1414.00330     626.4852     402.8917
   1413.98804     600.7364     394.4641   1413.98804     600.7364     394.4641
   1413.97278     596.9705     393.2534   1413.97278     596.9705     393.2534
   1413.95752     592.9484     391.2576   1413.95752     592.9484     391.2576
   1413.94226     590.8129     390.3331   1413.94226     590.8129     390.3331
   1413.92700     587.8219     388.9061   1413.92700     587.8219     388.9061
   1413.91174     583.7820     387.1976   1413.91174     583.7820     387.1976
   1413.89648     581.5267     386.0683   1413.89648     581.5267     386.0683
   1413.88123     578.6326     383.8763   1413.88123     578.6326     383.8763
   1413.86597     575.1992     382.8470   1413.86597     575.1992     382.8470
   1413.85071     572.5536     381.0969   1413.85071     572.5536     381.0969
   1413.83545     569.4166     379.6214   1413.83545     569.4166     379.6214
   1413.82019     566.6227     377.4044   1413.82019     566.6227     377.4044
   1413.80493     563.4194     376.7043   1413.80493     563.4194     376.7043
   1413.78967     560.3270     374.6080   1413.78967     560.3270     374.6080
   1413.77441     557.3184     373.1620   1413.77441     557.3184     373.1620
   1413.75916     554.0707     372.1146   1413.75916     554.0707     372.1146
   1413.74390     551.3116     370.3890   1413.74390     551.3116     370.3890
   1413.72864     547.9497     369.1666   1413.72864     547.9497     369.1666
   1413.71338     544.8453     367.2290   1413.71338     544.8453     367.2290
   1413.69812     541.5958     365.7591   1413.69812     541.5958     365.7591
   1413.68286     539.2784     364.0146   1413.68286     539.2784     364.0146
   1413.66760     536.3192     362.6210   1413.66760     536.3192     362.6210
   1413.65234     532.5383     360.9198   1413.65234     532.5383     360.9198
   1413.63708     529.4575     359.7992   1413.63708     529.4575     359.7992
   1413.62183     526.5128     357.9159   1413.62183     526.5128     357.9159
   1413.60657     524.8651     356.2320   1413.60657     524.8651     356.2320
   1413.59131     520.8118     354.6836   1413.59131     520.8118     354.6836
   1413.57605     517.2546     353.1128   1413.57605     517.2546     353.1128
   1413.56079     514.5770     351.7299   1413.56079     514.5770     351.7299
   1413.54553     510.9019     350.2729   1413.54553     510.9019     350.2729
   1413.53027     508.3162     348.5282   1413.53027     508.3162     348.5282
   1413.51501     505.6162     347.2833   1413.51501     505.6162     347.2833
   1413.49976     503.2635     345.2788   1413.49976     503.2635     345.2788
   1413.48450     499.9672     344.1624   1413.48450     499.9672     344.1624
   1413.46924     496.6478     342.9697   1413.46924     496.6478     342.9697
   1413.45398     493.3270     340.8228   1413.45398     493.3270     340.8228
   1413.43872     491.2756     339.8970   1413.43872     491.2756     339.8970
   1413.42346     488.1526     337.9240   1413.42346     488.1526     337.9240
   1413.40820     485.5815     336.9731   1413.40820     485.5815     336.9731
   1413.39294     482.1845     335.3167   1413.39294     482.1845     335.3167
   1413.37769     479.6981     333.8416   1413.37769     479.6981     333.8416
   1413.36243     476.6539     332.4297   1413.36243     476.6539     332.4297
   1413.34717     472.8184     330.6083   1413.34717     472.8184     330.6083
   1413.33191     471.0388     329.4671   1413.33191     471.0388     329.4671
   1413.31665     468.1542     327.9463   1413.31665     468.1542     327.9463
   1413.30139     465.5092     326.7469   1413.30139     465.5092     326.7469
   1413.28613     463.1062     325.1529   1413.28613     463.1062     325.1529
   1413.27087     460.4082     323.8129   1413.27087     460.4082     323.8129
   1413.25562     457.7038     322.3221   1413.25562     457.7038     322.3221
   1413.24036     454.6235     320.8664   1413.24036     454.6235     320.8664
   1413.22510     451.5004     319.4970   1413.22510     451.5004     319.4970
   1413.20984     449.4276     317.8414   1413.20984     449.4276     317.8414
   1413.19458     446.4774     317.0338   1413.19458     446.4774     317.0338
   1413.17932     443.8248     316.1869   1413.17932     443.8248     316.1869
   1413.16406     441.9291     314.8046   1413.16406     441.9291     314.8046
   1413.14880     439.2924     313.1936   1413.14880     439.2924     313.1936
   1413.13354     437.4552     311.7492   1413.13354     437.4552     311.7492
   1413.11829     434.9136     310.7630   1413.11829     434.9136     310.7630
   1413.10303     431.2703     309.6497   1413.10303     431.2703     309.6497
   1413.08777     429.7644     308.2406   1413.08777     429.7644     308.2406
   1413.07251     427.1398     306.8817   1413.07251     427.1398     306.8817
   1413.05725     425.2019     306.0473   1413.05725     425.2019     306.0473
   1413.04199     422.9695     304.9264   1413.04199     422.9695     304.9264
   1413.02673     421.4384     303.6642   1413.02673     421.4384     303.6642
   1413.01147     418.0872     302.2739   1413.01147     418.0872     302.2739
   1412.99622     416.0157     301.4245   1412.99622     416.0157     301.4245
   1412.98096     414.5553     300.8012   1412.98096     414.5553     300.8012
   1412.96570     412.2154     299.4927   1412.96570     412.2154     299.4927
   1412.95044     409.4295     298.6618   1412.95044     409.4295     298.6618
   1412.93518     407.5864     297.6001   1412.93518     407.5864     297.6001
   1412.91992     406.1569     296.6313   1412.91992     406.1569     296.6313
   1412.90466     404.1843     295.8654   1412.90466     404.1843     295.8654
   1412.88940     402.5361     294.7368   1412.88940     402.5361     294.7368
   1412.87415     400.2833     293.5092   1412.87415     400.2833     293.5092
   1412.85889     398.7988     293.7701   1412.85889     398.7988     293.7701
   1412.84363     396.7645     292.4487   1412.84363     396.7645     292.4487
   1412.82837     395.0880     291.7059   1412.82837     395.0880     291.7059
   1412.81311     394.1961     290.6231   1412.81311     394.1961     290.6231
   1412.79785     391.9849     289.9908   1412.79785     391.9849     289.9908
   1412.78259     390.2423     289.2987   1412.78259     390.2423     289.2987
   1412.76733     388.8343     289.0832   1412.76733     388.8343     289.0832
   1412.75208     387.2841     287.9622   1412.75208     387.2841     287.9622
   1412.73682     385.6432     287.8739   1412.73682     385.6432     287.8739
   1412.72156     384.4798     287.3107   1412.72156     384.4798     287.3107
   1412.70630     382.6785     286.4906   1412.70630     382.6785     286.4906
   1412.69104     382.3537     286.0983   1412.69104     382.3537     286.0983
   1412.67578     380.9258     286.0391   1412.67578     380.9258     286.0391
   1412.66052     380.1484     284.8432   1412.66052     380.1484     284.8432
   1412.64526     378.6657     284.7068   1412.64526     378.6657     284.7068
   1412.63000     378.1029     284.6270   1412.63000     378.1029     284.6270
   1412.61475     377.7039     283.9344   1412.61475     377.7039     283.9344
   1412.59949     375.6268     283.4886   1412.59949     375.6268     283.4886
   1412.58423     375.2515     283.2223   1412.58423     375.2515     283.2223
   1412.56897     374.8301     283.3867   1412.56897     374.8301     283.3867
   1412.55371     373.2372     282.7126   1412.55371     373.2372     282.7126
   1412.53845     372.9849     282.3224   1412.53845     372.9849     282.3224
   1412.52319     371.2867     282.1867   1412.52319     371.2867     282.1867
   1412.50793     371.6259     282.4081   1412.50793     371.6259     282.4081
   1412.49268     370.7961     282.7416   1412.49268     370.7961     282.7416
   1412.47742     370.5468     282.3458   1412.47742     370.5468     282.3458
   1412.46216     369.5886     281.9593   1412.46216     369.5886     281.9593
   1412.44690     369.5573     282.3391   1412.44690     369.5573     282.3391
   1412.43164     368.3078     282.2772   1412.43164     368.3078     282.2772
   1412.41638     368.8336     282.8421   1412.41638     368.8336     282.8421
   1412.40112     368.3000     282.7216   1412.40112     368.3000     282.7216
   1412.38586     369.0552     282.8710   1412.38586     369.0552     282.8710
   1412.37061     369.0981     283.0277   1412.37061     369.0981     283.0277
   1412.35535     368.6956     283.4074   1412.35535     368.6956     283.4074
   1412.34009     368.6916     283.4861   1412.34009     368.6916     283.4861
   1412.32483     368.8873     283.8461   1412.32483     368.8873     283.8461
   1412.30957     368.9923     284.3499   1412.30957     368.9923     284.3499
   1412.29431     368.9423     285.2876   1412.29431     368.9423     285.2876
   1412.27905     369.1632     285.6628   1412.27905     369.1632     285.6628
   1412.26379     369.4409     285.6992   1412.26379     369.4409     285.6992
   1412.24854     369.8283     286.3424   1412.24854     369.8283     286.3424
   1412.23328     370.7969     287.0515   1412.23328     370.7969     287.0515
   1412.21802     370.6179     287.4631   1412.21802     370.6179     287.4631
   1412.20276     371.5889     288.6753   1412.20276     371.5889     288.6753