#     FILENAME=!Skynet_57528_lach-cc-224_20639_21034.cyb.fits
#     BASENAME=Skynet_57528_lach-cc-224_20639_21034
#     SRC_NAME=lach-cc-224
#     OBSERVER=ccmadison16_9505
#     DATE_OBS=2016-05-20T19:44:19.560
#        OBSID=20639
#      SCANNUM=21034
#          MJD=57528.8235
#          UTC=71149
#     SCANTYPE=track
#     DATAMODE=HIRES
#     TUNEFREQ=1420.0000
# Actual_FREQ1=1420.0000
# Actual_FREQ2=1420.0000
#    LO1Tuning=6870.000
#     RFFILTER=1355_1435
#        OBSBW=-15.6250
#        NCHAN=1024 
#        FOCUS=37.0709
#           RA=07:11:48.37
#          DEC=-09:50:13.58
#      RA(hrs)=7.196800
#     DEC(deg)=-9.837100
#    AZIM(deg)=162.603
#    ELEV(deg)=40.039
#     IFattens=10.00, 9.00
#      WARNING=None
#    TCAL_XL1=7.9635
#    TCAL_YR1=9.1340
#    TCAL_XL2=7.9635
#    TCAL_YR2=9.1340
#     TRX_XL1=11.7060
#     TRX_YR1=11.7060
#     TRX_XL2=11.7060
#     TRX_YR2=11.7060
#        TAVE=1.0000
#Freq1(MHz)          XL1          YR1  Freq2(MHz)          XL2          YR2 

   1427.81250     358.0717     273.2443   1427.81250     358.0717     273.2443
   1427.79724     358.4437     273.8479   1427.79724     358.4437     273.8479
   1427.78198     358.9915     274.4178   1427.78198     358.9915     274.4178
   1427.76672     359.3099     274.4405   1427.76672     359.3099     274.4405
   1427.75146     361.1001     275.6931   1427.75146     361.1001     275.6931
   1427.73621     361.5765     275.9957   1427.73621     361.5765     275.9957
   1427.72095     362.9731     276.6805   1427.72095     362.9731     276.6805
   1427.70569     363.4236     277.3622   1427.70569     363.4236     277.3622
   1427.69043     364.7898     277.7490   1427.69043     364.7898     277.7490
   1427.67517     365.8034     279.2364   1427.67517     365.8034     279.2364
   1427.65991     367.2860     279.4897   1427.65991     367.2860     279.4897
   1427.64465     367.9968     280.4771   1427.64465     367.9968     280.4771
   1427.62939     369.3348     281.1203   1427.62939     369.3348     281.1203
   1427.61414     370.1967     283.1664   1427.61414     370.1967     283.1664
   1427.59888     371.9717     284.0587   1427.59888     371.9717     284.0587
   1427.58362     373.1246     284.5659   1427.58362     373.1246     284.5659
   1427.56836     374.5972     285.5920   1427.56836     374.5972     285.5920
   1427.55310     375.7316     286.5600   1427.55310     375.7316     286.5600
   1427.53784     377.3756     287.8246   1427.53784     377.3756     287.8246
   1427.52258     379.1045     288.9031   1427.52258     379.1045     288.9031
   1427.50732     380.5858     290.2934   1427.50732     380.5858     290.2934
   1427.49207     381.3631     291.2853   1427.49207     381.3631     291.2853
   1427.47681     384.1540     292.5919   1427.47681     384.1540     292.5919
   1427.46155     386.5769     294.1093   1427.46155     386.5769     294.1093
   1427.44629     387.2214     295.3860   1427.44629     387.2214     295.3860
   1427.43103     388.7552     296.7849   1427.43103     388.7552     296.7849
   1427.41577     391.0142     298.0141   1427.41577     391.0142     298.0141
   1427.40051     392.4438     299.4194   1427.40051     392.4438     299.4194
   1427.38525     394.6475     300.9485   1427.38525     394.6475     300.9485
   1427.37000     396.8690     302.3961   1427.37000     396.8690     302.3961
   1427.35474     398.7614     304.0007   1427.35474     398.7614     304.0007
   1427.33948     401.6335     305.1847   1427.33948     401.6335     305.1847
   1427.32422     403.4789     306.9785   1427.32422     403.4789     306.9785
   1427.30896     405.4024     308.7411   1427.30896     405.4024     308.7411
   1427.29370     407.1006     310.1880   1427.29370     407.1006     310.1880
   1427.27844     409.6330     311.7010   1427.27844     409.6330     311.7010
   1427.26318     411.3456     313.8562   1427.26318     411.3456     313.8562
   1427.24792     414.1828     315.4379   1427.24792     414.1828     315.4379
   1427.23267     415.9286     317.3892   1427.23267     415.9286     317.3892
   1427.21741     418.6479     318.6925   1427.21741     418.6479     318.6925
   1427.20215     421.0513     320.8616   1427.20215     421.0513     320.8616
   1427.18689     423.4278     323.1118   1427.18689     423.4278     323.1118
   1427.17163     425.8777     324.5216   1427.17163     425.8777     324.5216
   1427.15637     428.0076     326.5280   1427.15637     428.0076     326.5280
   1427.14111     430.3382     328.9128   1427.14111     430.3382     328.9128
   1427.12585     432.8182     330.2364   1427.12585     432.8182     330.2364
   1427.11060     435.8125     332.1981   1427.11060     435.8125     332.1981
   1427.09534     437.9230     334.4055   1427.09534     437.9230     334.4055
   1427.08008     440.2639     335.9206   1427.08008     440.2639     335.9206
   1427.06482     443.0081     338.2283   1427.06482     443.0081     338.2283
   1427.04956     445.5839     340.5184   1427.04956     445.5839     340.5184
   1427.03430     447.8637     341.9189   1427.03430     447.8637     341.9189
   1427.01904     450.5818     345.7957   1427.01904     450.5818     345.7957
   1427.00378     453.6441     347.0687   1427.00378     453.6441     347.0687
   1426.98853     456.7379     348.2861   1426.98853     456.7379     348.2861
   1426.97327     459.4077     350.6642   1426.97327     459.4077     350.6642
   1426.95801     461.6844     353.2206   1426.95801     461.6844     353.2206
   1426.94275     464.2419     355.9351   1426.94275     464.2419     355.9351
   1426.92749     466.7548     357.2310   1426.92749     466.7548     357.2310
   1426.91223     469.7307     359.9004   1426.91223     469.7307     359.9004
   1426.89697     472.2711     362.1691   1426.89697     472.2711     362.1691
   1426.88171     474.5706     364.7736   1426.88171     474.5706     364.7736
   1426.86646     478.1082     366.5391   1426.86646     478.1082     366.5391
   1426.85120     480.5728     368.7154   1426.85120     480.5728     368.7154
   1426.83594     483.0774     371.7291   1426.83594     483.0774     371.7291
   1426.82068     485.6772     373.4591   1426.82068     485.6772     373.4591
   1426.80542     488.0342     376.0643   1426.80542     488.0342     376.0643
   1426.79016     491.9674     378.7124   1426.79016     491.9674     378.7124
   1426.77490     495.0240     380.8881   1426.77490     495.0240     380.8881
   1426.75964     497.3618     383.2686   1426.75964     497.3618     383.2686
   1426.74438     500.1130     385.8149   1426.74438     500.1130     385.8149
   1426.72913     502.3846     388.1981   1426.72913     502.3846     388.1981
   1426.71387     506.0675     389.8837   1426.71387     506.0675     389.8837
   1426.69861     509.0637     393.1551   1426.69861     509.0637     393.1551
   1426.68335     511.2063     395.3375   1426.68335     511.2063     395.3375
   1426.66809     514.1176     398.0071   1426.66809     514.1176     398.0071
   1426.65283     517.9352     400.3322   1426.65283     517.9352     400.3322
   1426.63757     520.1319     402.5605   1426.63757     520.1319     402.5605
   1426.62231     524.0836     405.9258   1426.62231     524.0836     405.9258
   1426.60706     525.7278     407.8134   1426.60706     525.7278     407.8134
   1426.59180     528.5067     410.0457   1426.59180     528.5067     410.0457
   1426.57654     530.7758     413.2789   1426.57654     530.7758     413.2789
   1426.56128     533.5279     415.3148   1426.56128     533.5279     415.3148
   1426.54602     535.7253     417.2445   1426.54602     535.7253     417.2445
   1426.53076     538.8649     419.7769   1426.53076     538.8649     419.7769
   1426.51550     541.4905     422.6572   1426.51550     541.4905     422.6572
   1426.50024     545.1724     424.8396   1426.50024     545.1724     424.8396
   1426.48499     547.3694     428.0645   1426.48499     547.3694     428.0645
   1426.46973     549.6104     429.7733   1426.46973     549.6104     429.7733
   1426.45447     552.4952     432.4899   1426.45447     552.4952     432.4899
   1426.43921     556.0160     435.0769   1426.43921     556.0160     435.0769
   1426.42395     558.8743     437.0461   1426.42395     558.8743     437.0461
   1426.40869     561.2166     439.9579   1426.40869     561.2166     439.9579
   1426.39343     563.0418     442.5475   1426.39343     563.0418     442.5475
   1426.37817     566.0513     445.2639   1426.37817     566.0513     445.2639
   1426.36292     568.0430     446.9262   1426.36292     568.0430     446.9262
   1426.34766     572.3373     449.6369   1426.34766     572.3373     449.6369
   1426.33240     574.5551     451.6811   1426.33240     574.5551     451.6811
   1426.31714     577.1071     454.7451   1426.31714     577.1071     454.7451
   1426.30188     578.5425     457.9831   1426.30188     578.5425     457.9831
   1426.28662     581.9783     459.5393   1426.28662     581.9783     459.5393
   1426.27136     584.1944     462.5024   1426.27136     584.1944     462.5024
   1426.25610     586.2704     464.0852   1426.25610     586.2704     464.0852
   1426.24084     589.5513     467.2256   1426.24084     589.5513     467.2256
   1426.22559     591.4763     469.1933   1426.22559     591.4763     469.1933
   1426.21033     593.6113     471.9417   1426.21033     593.6113     471.9417
   1426.19507     596.7829     474.5995   1426.19507     596.7829     474.5995
   1426.17981     599.1366     477.2215   1426.17981     599.1366     477.2215
   1426.16455     601.9562     479.4170   1426.16455     601.9562     479.4170
   1426.14929     603.7639     482.1516   1426.14929     603.7639     482.1516
   1426.13403     607.2275     483.5374   1426.13403     607.2275     483.5374
   1426.11877     607.8886     486.3027   1426.11877     607.8886     486.3027
   1426.10352     610.1385     488.6300   1426.10352     610.1385     488.6300
   1426.08826     612.9727     491.8098   1426.08826     612.9727     491.8098
   1426.07300     615.2690     493.9466   1426.07300     615.2690     493.9466
   1426.05774     616.2036     496.7295   1426.05774     616.2036     496.7295
   1426.04248     619.3360     498.9156   1426.04248     619.3360     498.9156
   1426.02722     621.9937     500.9828   1426.02722     621.9937     500.9828
   1426.01196     624.6418     503.1996   1426.01196     624.6418     503.1996
   1425.99670     626.1145     505.9022   1425.99670     626.1145     505.9022
   1425.98145     628.4634     507.7162   1425.98145     628.4634     507.7162
   1425.96619     631.3821     510.5095   1425.96619     631.3821     510.5095
   1425.95093     632.3894     512.0825   1425.95093     632.3894     512.0825
   1425.93567     633.9266     514.3343   1425.93567     633.9266     514.3343
   1425.92041     636.1844     517.8411   1425.92041     636.1844     517.8411
   1425.90515     638.7604     518.9321   1425.90515     638.7604     518.9321
   1425.88989     639.8063     520.6738   1425.88989     639.8063     520.6738
   1425.87463     641.8430     523.2654   1425.87463     641.8430     523.2654
   1425.85938     644.2302     525.8051   1425.85938     644.2302     525.8051
   1425.84412     645.3753     528.4946   1425.84412     645.3753     528.4946
   1425.82886     647.8267     530.3135   1425.82886     647.8267     530.3135
   1425.81360     649.4898     532.7506   1425.81360     649.4898     532.7506
   1425.79834     650.7872     533.9230   1425.79834     650.7872     533.9230
   1425.78308     652.7315     536.1158   1425.78308     652.7315     536.1158
   1425.76782     654.7581     538.6300   1425.76782     654.7581     538.6300
   1425.75256     656.4646     541.0391   1425.75256     656.4646     541.0391
   1425.73730     658.9821     542.8054   1425.73730     658.9821     542.8054
   1425.72205     659.6263     545.8929   1425.72205     659.6263     545.8929
   1425.70679     661.9012     547.4780   1425.70679     661.9012     547.4780
   1425.69153     662.5420     549.3133   1425.69153     662.5420     549.3133
   1425.67627     664.6747     551.1376   1425.67627     664.6747     551.1376
   1425.66101     666.3931     553.8917   1425.66101     666.3931     553.8917
   1425.64575     667.9273     555.5887   1425.64575     667.9273     555.5887
   1425.63049     669.1472     557.7582   1425.63049     669.1472     557.7582
   1425.61523     669.6956     559.9626   1425.61523     669.6956     559.9626
   1425.59998     672.4232     561.7988   1425.59998     672.4232     561.7988
   1425.58472     673.9969     563.0156   1425.58472     673.9969     563.0156
   1425.56946     675.1863     565.2670   1425.56946     675.1863     565.2670
   1425.55420     676.6932     566.9923   1425.55420     676.6932     566.9923
   1425.53894     678.0419     569.4426   1425.53894     678.0419     569.4426
   1425.52368     679.0334     571.7385   1425.52368     679.0334     571.7385
   1425.50842     680.2540     572.8926   1425.50842     680.2540     572.8926
   1425.49316     681.8767     575.4539   1425.49316     681.8767     575.4539
   1425.47791     683.2216     577.2399   1425.47791     683.2216     577.2399
   1425.46265     682.9876     578.8624   1425.46265     682.9876     578.8624
   1425.44739     685.0027     580.5124   1425.44739     685.0027     580.5124
   1425.43213     686.6851     581.5762   1425.43213     686.6851     581.5762
   1425.41687     687.3914     585.0946   1425.41687     687.3914     585.0946
   1425.40161     688.1183     584.8389   1425.40161     688.1183     584.8389
   1425.38635     688.5844     587.6363   1425.38635     688.5844     587.6363
   1425.37109     690.8794     589.1699   1425.37109     690.8794     589.1699
   1425.35583     690.9700     590.4764   1425.35583     690.9700     590.4764
   1425.34058     692.4133     592.5863   1425.34058     692.4133     592.5863
   1425.32532     692.9351     594.9120   1425.32532     692.9351     594.9120
   1425.31006     693.8787     595.8679   1425.31006     693.8787     595.8679
   1425.29480     694.6921     597.3746   1425.29480     694.6921     597.3746
   1425.27954     695.5110     598.6048   1425.27954     695.5110     598.6048
   1425.26428     696.2975     601.2551   1425.26428     696.2975     601.2551
   1425.24902     697.6150     602.5729   1425.24902     697.6150     602.5729
   1425.23376     698.6729     604.6381   1425.23376     698.6729     604.6381
   1425.21851     698.4728     606.7230   1425.21851     698.4728     606.7230
   1425.20325     699.7317     608.1089   1425.20325     699.7317     608.1089
   1425.18799     699.3120     608.1076   1425.18799     699.3120     608.1076
   1425.17273     700.9026     609.5873   1425.17273     700.9026     609.5873
   1425.15747     702.2585     612.5176   1425.15747     702.2585     612.5176
   1425.14221     702.5820     613.9058   1425.14221     702.5820     613.9058
   1425.12695     702.7351     614.3867   1425.12695     702.7351     614.3867
   1425.11169     703.9959     617.0033   1425.11169     703.9959     617.0033
   1425.09644     704.8956     617.2220   1425.09644     704.8956     617.2220
   1425.08118     704.8036     618.6059   1425.08118     704.8036     618.6059
   1425.06592     705.3714     621.7881   1425.06592     705.3714     621.7881
   1425.05066     706.5978     621.8257   1425.05066     706.5978     621.8257
   1425.03540     706.8328     624.0067   1425.03540     706.8328     624.0067
   1425.02014     707.7701     625.6387   1425.02014     707.7701     625.6387
   1425.00488     707.8667     625.8334   1425.00488     707.8667     625.8334
   1424.98962     709.6891     627.7637   1424.98962     709.6891     627.7637
   1424.97437     708.4339     628.3630   1424.97437     708.4339     628.3630
   1424.95911     709.3950     629.5256   1424.95911     709.3950     629.5256
   1424.94385     709.2902     630.3992   1424.94385     709.2902     630.3992
   1424.92859     709.4136     632.8158   1424.92859     709.4136     632.8158
   1424.91333     709.4918     634.4474   1424.91333     709.4918     634.4474
   1424.89807     710.2638     634.3609   1424.89807     710.2638     634.3609
   1424.88281     710.3217     634.9020   1424.88281     710.3217     634.9020
   1424.86755     711.7400     637.4194   1424.86755     711.7400     637.4194
   1424.85229     711.6442     638.9189   1424.85229     711.6442     638.9189
   1424.83704     711.8082     639.4929   1424.83704     711.8082     639.4929
   1424.82178     712.5118     640.6464   1424.82178     712.5118     640.6464
   1424.80652     712.6314     641.3680   1424.80652     712.6314     641.3680
   1424.79126     712.5505     642.0110   1424.79126     712.5505     642.0110
   1424.77600     712.1718     643.9280   1424.77600     712.1718     643.9280
   1424.76074     714.0022     644.9899   1424.76074     714.0022     644.9899
   1424.74548     712.6768     646.1677   1424.74548     712.6768     646.1677
   1424.73022     714.4398     647.7255   1424.73022     714.4398     647.7255
   1424.71497     714.6979     647.2181   1424.71497     714.6979     647.2181
   1424.69971     715.0032     648.8571   1424.69971     715.0032     648.8571
   1424.68445     713.0692     649.4041   1424.68445     713.0692     649.4041
   1424.66919     714.6802     649.9432   1424.66919     714.6802     649.9432
   1424.65393     714.4954     651.4351   1424.65393     714.4954     651.4351
   1424.63867     714.1984     652.6813   1424.63867     714.1984     652.6813
   1424.62341     714.2241     652.4270   1424.62341     714.2241     652.4270
   1424.60815     715.1705     653.8892   1424.60815     715.1705     653.8892
   1424.59290     715.2263     654.2567   1424.59290     715.2263     654.2567
   1424.57764     714.5307     655.3795   1424.57764     714.5307     655.3795
   1424.56238     715.3729     656.5112   1424.56238     715.3729     656.5112
   1424.54712     714.8536     656.2225   1424.54712     714.8536     656.2225
   1424.53186     715.1367     657.7079   1424.53186     715.1367     657.7079
   1424.51660     714.8145     658.0550   1424.51660     714.8145     658.0550
   1424.50134     714.9661     659.7633   1424.50134     714.9661     659.7633
   1424.48608     714.8630     659.1854   1424.48608     714.8630     659.1854
   1424.47083     714.9630     659.0839   1424.47083     714.9630     659.0839
   1424.45557     713.8887     661.4668   1424.45557     713.8887     661.4668
   1424.44031     715.3181     661.2903   1424.44031     715.3181     661.2903
   1424.42505     714.8236     661.7219   1424.42505     714.8236     661.7219
   1424.40979     715.4686     661.9140   1424.40979     715.4686     661.9140
   1424.39453     714.5640     663.4043   1424.39453     714.5640     663.4043
   1424.37927     714.5989     662.8228   1424.37927     714.5989     662.8228
   1424.36401     713.6530     663.5533   1424.36401     713.6530     663.5533
   1424.34875     715.6118     664.4147   1424.34875     715.6118     664.4147
   1424.33350     714.7580     664.4628   1424.33350     714.7580     664.4628
   1424.31824     714.7208     665.5429   1424.31824     714.7208     665.5429
   1424.30298     714.6332     665.3655   1424.30298     714.6332     665.3655
   1424.28772     713.5557     665.8674   1424.28772     713.5557     665.8674
   1424.27246     713.6269     666.6570   1424.27246     713.6269     666.6570
   1424.25720     713.5212     666.4139   1424.25720     713.5212     666.4139
   1424.24194     713.3872     667.5172   1424.24194     713.3872     667.5172
   1424.22668     714.7035     666.8548   1424.22668     714.7035     666.8548
   1424.21143     713.0461     668.6294   1424.21143     713.0461     668.6294
   1424.19617     712.8809     668.3898   1424.19617     712.8809     668.3898
   1424.18091     713.1630     668.2134   1424.18091     713.1630     668.2134
   1424.16565     713.4758     667.8975   1424.16565     713.4758     667.8975
   1424.15039     712.9983     667.9354   1424.15039     712.9983     667.9354
   1424.13513     714.0121     669.1312   1424.13513     714.0121     669.1312
   1424.11987     712.6038     668.8910   1424.11987     712.6038     668.8910
   1424.10461     712.9215     668.7948   1424.10461     712.9215     668.7948
   1424.08936     712.2402     670.9552   1424.08936     712.2402     670.9552
   1424.07410     713.0192     668.6240   1424.07410     713.0192     668.6240
   1424.05884     712.4804     669.7205   1424.05884     712.4804     669.7205
   1424.04358     711.0258     669.2744   1424.04358     711.0258     669.2744
   1424.02832     712.6106     669.7908   1424.02832     712.6106     669.7908
   1424.01306     711.8217     669.9203   1424.01306     711.8217     669.9203
   1423.99780     711.9655     669.9992   1423.99780     711.9655     669.9992
   1423.98254     712.4040     668.9843   1423.98254     712.4040     668.9843
   1423.96729     712.3727     669.7559   1423.96729     712.3727     669.7559
   1423.95203     709.8849     669.2661   1423.95203     709.8849     669.2661
   1423.93677     711.4220     669.4858   1423.93677     711.4220     669.4858
   1423.92151     710.8091     669.8945   1423.92151     710.8091     669.8945
   1423.90625     710.7457     668.8842   1423.90625     710.7457     668.8842
   1423.89099     710.6312     669.1862   1423.89099     710.6312     669.1862
   1423.87573     710.9848     669.0470   1423.87573     710.9848     669.0470
   1423.86047     710.7647     669.1642   1423.86047     710.7647     669.1642
   1423.84521     709.5731     667.9560   1423.84521     709.5731     667.9560
   1423.82996     709.2504     668.8561   1423.82996     709.2504     668.8561
   1423.81470     710.7323     667.8296   1423.81470     710.7323     667.8296
   1423.79944     708.2351     666.9171   1423.79944     708.2351     666.9171
   1423.78418     707.9782     667.8062   1423.78418     707.9782     667.8062
   1423.76892     709.4532     667.5828   1423.76892     709.4532     667.5828
   1423.75366     709.1091     667.3205   1423.75366     709.1091     667.3205
   1423.73840     708.3066     667.1981   1423.73840     708.3066     667.1981
   1423.72314     708.4662     666.5941   1423.72314     708.4662     666.5941
   1423.70789     708.9911     665.4453   1423.70789     708.9911     665.4453
   1423.69263     708.0491     665.7900   1423.69263     708.0491     665.7900
   1423.67737     707.4919     663.5475   1423.67737     707.4919     663.5475
   1423.66211     707.1060     665.4835   1423.66211     707.1060     665.4835
   1423.64685     707.0765     664.0642   1423.64685     707.0765     664.0642
   1423.63159     706.7147     663.9167   1423.63159     706.7147     663.9167
   1423.61633     705.9678     663.6824   1423.61633     705.9678     663.6824
   1423.60107     706.9592     663.4120   1423.60107     706.9592     663.4120
   1423.58582     706.0163     663.1208   1423.58582     706.0163     663.1208
   1423.57056     705.3230     662.0806   1423.57056     705.3230     662.0806
   1423.55530     705.7672     661.6327   1423.55530     705.7672     661.6327
   1423.54004     705.6867     660.3859   1423.54004     705.6867     660.3859
   1423.52478     704.3856     661.0322   1423.52478     704.3856     661.0322
   1423.50952     705.6601     659.5807   1423.50952     705.6601     659.5807
   1423.49426     704.9902     659.0836   1423.49426     704.9902     659.0836
   1423.47900     704.5917     659.2856   1423.47900     704.5917     659.2856
   1423.46375     703.6450     657.5383   1423.46375     703.6450     657.5383
   1423.44849     702.6352     657.5843   1423.44849     702.6352     657.5843
   1423.43323     704.3415     657.6655   1423.43323     704.3415     657.6655
   1423.41797     704.6121     656.6179   1423.41797     704.6121     656.6179
   1423.40271     703.0731     656.0344   1423.40271     703.0731     656.0344
   1423.38745     703.0459     654.9731   1423.38745     703.0459     654.9731
   1423.37219     702.8265     653.7847   1423.37219     702.8265     653.7847
   1423.35693     701.7307     653.0184   1423.35693     701.7307     653.0184
   1423.34167     703.4534     651.3158   1423.34167     703.4534     651.3158
   1423.32642     703.0576     652.3284   1423.32642     703.0576     652.3284
   1423.31116     701.5589     649.5542   1423.31116     701.5589     649.5542
   1423.29590     702.3523     650.6379   1423.29590     702.3523     650.6379
   1423.28064     701.5802     649.3765   1423.28064     701.5802     649.3765
   1423.26538     701.2027     648.6895   1423.26538     701.2027     648.6895
   1423.25012     700.3227     648.2026   1423.25012     700.3227     648.2026
   1423.23486     699.2955     645.6693   1423.23486     699.2955     645.6693
   1423.21960     700.9490     644.7641   1423.21960     700.9490     644.7641
   1423.20435     700.4866     644.4890   1423.20435     700.4866     644.4890
   1423.18909     701.2296     643.4233   1423.18909     701.2296     643.4233
   1423.17383     700.3243     642.7188   1423.17383     700.3243     642.7188
   1423.15857     698.9309     643.3849   1423.15857     698.9309     643.3849
   1423.14331     698.9220     640.6047   1423.14331     698.9220     640.6047
   1423.12805     699.7133     640.5010   1423.12805     699.7133     640.5010
   1423.11279     699.3376     639.2202   1423.11279     699.3376     639.2202
   1423.09753     699.1196     638.4522   1423.09753     699.1196     638.4522
   1423.08228     698.5868     637.2259   1423.08228     698.5868     637.2259
   1423.06702     698.8597     636.4927   1423.06702     698.8597     636.4927
   1423.05176     698.6694     634.8351   1423.05176     698.6694     634.8351
   1423.03650     698.0416     634.8982   1423.03650     698.0416     634.8982
   1423.02124     697.5211     633.6617   1423.02124     697.5211     633.6617
   1423.00598     697.3687     632.0687   1423.00598     697.3687     632.0687
   1422.99072     697.3589     630.8762   1422.99072     697.3589     630.8762
   1422.97546     697.2648     628.7752   1422.97546     697.2648     628.7752
   1422.96021     696.5092     628.2200   1422.96021     696.5092     628.2200
   1422.94495     696.8792     627.3744   1422.94495     696.8792     627.3744
   1422.92969     696.4156     626.0116   1422.92969     696.4156     626.0116
   1422.91443     696.3947     624.2213   1422.91443     696.3947     624.2213
   1422.89917     696.6469     625.2489   1422.89917     696.6469     625.2489
   1422.88391     695.6673     623.4013   1422.88391     695.6673     623.4013
   1422.86865     695.5033     623.0731   1422.86865     695.5033     623.0731
   1422.85339     695.4304     621.6978   1422.85339     695.4304     621.6978
   1422.83813     694.0865     619.1303   1422.83813     694.0865     619.1303
   1422.82288     694.6176     618.9241   1422.82288     694.6176     618.9241
   1422.80762     693.8536     617.4684   1422.80762     693.8536     617.4684
   1422.79236     694.0379     617.0310   1422.79236     694.0379     617.0310
   1422.77710     694.5913     615.0032   1422.77710     694.5913     615.0032
   1422.76184     694.0245     613.9579   1422.76184     694.0245     613.9579
   1422.74658     693.6230     611.7458   1422.74658     693.6230     611.7458
   1422.73132     693.8871     611.1889   1422.73132     693.8871     611.1889
   1422.71606     693.3832     610.0551   1422.71606     693.3832     610.0551
   1422.70081     693.8074     609.1711   1422.70081     693.8074     609.1711
   1422.68555     692.5184     608.6902   1422.68555     692.5184     608.6902
   1422.67029     692.1773     607.3443   1422.67029     692.1773     607.3443
   1422.65503     692.4458     604.8891   1422.65503     692.4458     604.8891
   1422.63977     691.8519     603.7358   1422.63977     691.8519     603.7358
   1422.62451     692.2644     602.4316   1422.62451     692.2644     602.4316
   1422.60925     691.1241     600.7489   1422.60925     691.1241     600.7489
   1422.59399     691.3729     601.3771   1422.59399     691.3729     601.3771
   1422.57874     690.9113     599.3627   1422.57874     690.9113     599.3627
   1422.56348     690.2203     599.3059   1422.56348     690.2203     599.3059
   1422.54822     690.6066     596.9398   1422.54822     690.6066     596.9398
   1422.53296     691.0423     595.5394   1422.53296     691.0423     595.5394
   1422.51770     689.6456     594.8688   1422.51770     689.6456     594.8688
   1422.50244     689.7170     593.7047   1422.50244     689.7170     593.7047
   1422.48718     690.6255     591.4086   1422.48718     690.6255     591.4086
   1422.47192     688.7709     590.4774   1422.47192     688.7709     590.4774
   1422.45667     687.6072     589.5052   1422.45667     687.6072     589.5052
   1422.44141     689.1084     587.4510   1422.44141     689.1084     587.4510
   1422.42615     688.6388     586.1041   1422.42615     688.6388     586.1041
   1422.41089     688.2950     585.6589   1422.41089     688.2950     585.6589
   1422.39563     688.1254     583.9905   1422.39563     688.1254     583.9905
   1422.38037     688.3527     582.8112   1422.38037     688.3527     582.8112
   1422.36511     687.5139     581.5318   1422.36511     687.5139     581.5318
   1422.34985     688.1138     580.6488   1422.34985     688.1138     580.6488
   1422.33459     687.4210     578.7668   1422.33459     687.4210     578.7668
   1422.31934     686.7341     577.0494   1422.31934     686.7341     577.0494
   1422.30408     686.2316     576.5950   1422.30408     686.2316     576.5950
   1422.28882     685.5112     574.9435   1422.28882     685.5112     574.9435
   1422.27356     687.5520     573.6352   1422.27356     687.5520     573.6352
   1422.25830     685.6856     571.8566   1422.25830     685.6856     571.8566
   1422.24304     686.0822     570.2365   1422.24304     686.0822     570.2365
   1422.22778     685.5535     569.2994   1422.22778     685.5535     569.2994
   1422.21252     685.0539     568.6733   1422.21252     685.0539     568.6733
   1422.19727     685.4854     566.5451   1422.19727     685.4854     566.5451
   1422.18201     685.9304     565.4382   1422.18201     685.9304     565.4382
   1422.16675     685.6786     564.4802   1422.16675     685.6786     564.4802
   1422.15149     685.1754     562.6568   1422.15149     685.1754     562.6568
   1422.13623     684.0187     561.6562   1422.13623     684.0187     561.6562
   1422.12097     685.0009     561.0882   1422.12097     685.0009     561.0882
   1422.10571     683.8171     559.0667   1422.10571     683.8171     559.0667
   1422.09045     684.5430     558.2903   1422.09045     684.5430     558.2903
   1422.07520     683.8765     556.8356   1422.07520     683.8765     556.8356
   1422.05994     682.8493     555.2443   1422.05994     682.8493     555.2443
   1422.04468     683.7741     554.1415   1422.04468     683.7741     554.1415
   1422.02942     682.2523     552.6202   1422.02942     682.2523     552.6202
   1422.01416     683.2852     550.6631   1422.01416     683.2852     550.6631
   1421.99890     682.0277     550.4626   1421.99890     682.0277     550.4626
   1421.98364     681.1927     549.3140   1421.98364     681.1927     549.3140
   1421.96838     681.5875     547.0349   1421.96838     681.5875     547.0349
   1421.95312     681.7215     545.6157   1421.95312     681.7215     545.6157
   1421.93787     680.7601     544.6383   1421.93787     680.7601     544.6383
   1421.92261     680.9574     543.6973   1421.92261     680.9574     543.6973
   1421.90735     680.7816     542.0435   1421.90735     680.7816     542.0435
   1421.89209     679.9739     540.4453   1421.89209     679.9739     540.4453
   1421.87683     679.3589     539.4369   1421.87683     679.3589     539.4369
   1421.86157     679.9905     539.4100   1421.86157     679.9905     539.4100
   1421.84631     679.5359     537.2511   1421.84631     679.5359     537.2511
   1421.83105     678.4796     535.8440   1421.83105     678.4796     535.8440
   1421.81580     679.2771     534.2781   1421.81580     679.2771     534.2781
   1421.80054     678.7943     533.3843   1421.80054     678.7943     533.3843
   1421.78528     677.9326     530.7827   1421.78528     677.9326     530.7827
   1421.77002     678.2645     530.3429   1421.77002     678.2645     530.3429
   1421.75476     677.9973     529.2836   1421.75476     677.9973     529.2836
   1421.73950     677.7668     527.4719   1421.73950     677.7668     527.4719
   1421.72424     678.6109     526.7070   1421.72424     678.6109     526.7070
   1421.70898     676.2389     524.8983   1421.70898     676.2389     524.8983
   1421.69373     677.8914     523.6676   1421.69373     677.8914     523.6676
   1421.67847     677.6956     522.4387   1421.67847     677.6956     522.4387
   1421.66321     676.2010     521.6183   1421.66321     676.2010     521.6183
   1421.64795     676.5612     519.2404   1421.64795     676.5612     519.2404
   1421.63269     675.9462     519.8265   1421.63269     675.9462     519.8265
   1421.61743     676.4824     516.5627   1421.61743     676.4824     516.5627
   1421.60217     676.2544     515.9554   1421.60217     676.2544     515.9554
   1421.58691     676.0571     515.4326   1421.58691     676.0571     515.4326
   1421.57166     674.9989     514.2911   1421.57166     674.9989     514.2911
   1421.55640     675.0717     512.8862   1421.55640     675.0717     512.8862
   1421.54114     674.6203     511.8173   1421.54114     674.6203     511.8173
   1421.52588     675.3065     510.1286   1421.52588     675.3065     510.1286
   1421.51062     674.4193     509.3350   1421.51062     674.4193     509.3350
   1421.49536     674.2019     508.0131   1421.49536     674.2019     508.0131
   1421.48010     673.6821     506.6774   1421.48010     673.6821     506.6774
   1421.46484     673.9221     505.0913   1421.46484     673.9221     505.0913
   1421.44958     672.8887     505.1864   1421.44958     672.8887     505.1864
   1421.43433     673.0674     503.9539   1421.43433     673.0674     503.9539
   1421.41907     672.5131     502.4962   1421.41907     672.5131     502.4962
   1421.40381     673.3763     500.0368   1421.40381     673.3763     500.0368
   1421.38855     672.2113     499.5852   1421.38855     672.2113     499.5852
   1421.37329     671.7146     497.5992   1421.37329     671.7146     497.5992
   1421.35803     671.9113     496.4831   1421.35803     671.9113     496.4831
   1421.34277     671.9961     495.9721   1421.34277     671.9961     495.9721
   1421.32751     671.4152     494.5643   1421.32751     671.4152     494.5643
   1421.31226     672.0217     494.3659   1421.31226     672.0217     494.3659
   1421.29700     669.8828     492.5587   1421.29700     669.8828     492.5587
   1421.28174     670.6515     491.3610   1421.28174     670.6515     491.3610
   1421.26648     669.8693     490.5597   1421.26648     669.8693     490.5597
   1421.25122     670.2051     488.4934   1421.25122     670.2051     488.4934
   1421.23596     669.2922     487.2728   1421.23596     669.2922     487.2728
   1421.22070     668.8236     487.0447   1421.22070     668.8236     487.0447
   1421.20544     668.5254     485.2953   1421.20544     668.5254     485.2953
   1421.19019     667.4879     483.9036   1421.19019     667.4879     483.9036
   1421.17493     668.2017     482.7306   1421.17493     668.2017     482.7306
   1421.15967     669.1928     481.8838   1421.15967     669.1928     481.8838
   1421.14441     667.7625     480.2324   1421.14441     667.7625     480.2324
   1421.12915     668.0034     479.3099   1421.12915     668.0034     479.3099
   1421.11389     667.3421     478.0810   1421.11389     667.3421     478.0810
   1421.09863     667.7464     477.1616   1421.09863     667.7464     477.1616
   1421.08337     667.3401     476.9041   1421.08337     667.3401     476.9041
   1421.06812     666.3773     474.5949   1421.06812     666.3773     474.5949
   1421.05286     666.8046     474.1544   1421.05286     666.8046     474.1544
   1421.03760     666.0778     473.2245   1421.03760     666.0778     473.2245
   1421.02234     665.2075     471.7759   1421.02234     665.2075     471.7759
   1421.00708     665.3394     471.5337   1421.00708     665.3394     471.5337
   1420.99182     666.1832     470.1460   1420.99182     666.1832     470.1460
   1420.97656     663.8126     469.8589   1420.97656     663.8126     469.8589
   1420.96130     666.0569     468.3339   1420.96130     666.0569     468.3339
   1420.94604     664.2739     467.8006   1420.94604     664.2739     467.8006
   1420.93079     665.0535     465.8389   1420.93079     665.0535     465.8389
   1420.91553     664.1006     466.0226   1420.91553     664.1006     466.0226
   1420.90027     663.6379     464.2159   1420.90027     663.6379     464.2159
   1420.88501     664.0195     462.3174   1420.88501     664.0195     462.3174
   1420.86975     663.2864     462.5151   1420.86975     663.2864     462.5151
   1420.85449     664.1989     460.7778   1420.85449     664.1989     460.7778
   1420.83923     662.7998     459.9861   1420.83923     662.7998     459.9861
   1420.82397     663.5043     460.7399   1420.82397     663.5043     460.7399
   1420.80872     663.8029     458.7117   1420.80872     663.8029     458.7117
   1420.79346     663.1647     457.5770   1420.79346     663.1647     457.5770
   1420.77820     663.5991     456.6466   1420.77820     663.5991     456.6466
   1420.76294     663.0565     456.0994   1420.76294     663.0565     456.0994
   1420.74768     663.2746     454.9857   1420.74768     663.2746     454.9857
   1420.73242     663.9485     455.1165   1420.73242     663.9485     455.1165
   1420.71716     664.9187     453.8061   1420.71716     664.9187     453.8061
   1420.70190     665.0803     452.5360   1420.70190     665.0803     452.5360
   1420.68665     664.4805     451.7925   1420.68665     664.4805     451.7925
   1420.67139     662.2167     451.2445   1420.67139     662.2167     451.2445
   1420.65613     662.4899     450.5572   1420.65613     662.4899     450.5572
   1420.64087     662.8004     448.9910   1420.64087     662.8004     448.9910
   1420.62561     662.2272     447.8736   1420.62561     662.2272     447.8736
   1420.61035     662.3281     447.1595   1420.61035     662.3281     447.1595
   1420.59509     663.1932     446.2371   1420.59509     663.1932     446.2371
   1420.57983     663.4510     445.8515   1420.57983     663.4510     445.8515
   1420.56458     663.0071     446.9280   1420.56458     663.0071     446.9280
   1420.54932     665.4741     446.3341   1420.54932     665.4741     446.3341
   1420.53406     666.7047     446.9543   1420.53406     666.7047     446.9543
   1420.51880     667.6107     446.2997   1420.51880     667.6107     446.2997
   1420.50354     668.1632     445.6154   1420.50354     668.1632     445.6154
   1420.48828     667.3973     445.1073   1420.48828     667.3973     445.1073
   1420.47302     665.9258     443.1963   1420.47302     665.9258     443.1963
   1420.45776     665.0225     441.8338   1420.45776     665.0225     441.8338
   1420.44250     664.4240     440.4216   1420.44250     664.4240     440.4216
   1420.42725     663.6941     439.9392   1420.42725     663.6941     439.9392
   1420.41199     663.7722     439.4299   1420.41199     663.7722     439.4299
   1420.39673     663.7932     438.8293   1420.39673     663.7932     438.8293
   1420.38147     662.8989     437.8769   1420.38147     662.8989     437.8769
   1420.36621     664.9077     437.4827   1420.36621     664.9077     437.4827
   1420.35095     665.2634     437.3968   1420.35095     665.2634     437.3968
   1420.33569     666.6032     437.6014   1420.33569     666.6032     437.6014
   1420.32043     669.1566     438.1978   1420.32043     669.1566     438.1978
   1420.30518     674.2504     441.1340   1420.30518     674.2504     441.1340
   1420.28992     682.8351     445.3365   1420.28992     682.8351     445.3365
   1420.27466     696.9514     453.4833   1420.27466     696.9514     453.4833
   1420.25940     730.1900     473.4118   1420.25940     730.1900     473.4118
   1420.24414     833.4637     537.0819   1420.24414     833.4637     537.0819
   1420.22888    1130.4833     724.2676   1420.22888    1130.4833     724.2676
   1420.21362    1244.7057     795.4323   1420.21362    1244.7057     795.4323
   1420.19836    1118.0166     712.4412   1420.19836    1118.0166     712.4412
   1420.18311    1203.1243     763.2437   1420.18311    1203.1243     763.2437
   1420.16785    1591.4049    1005.7258   1420.16785    1591.4049    1005.7258
   1420.15259    1733.5603    1091.3380   1420.15259    1733.5603    1091.3380
   1420.13733    1416.7081     896.0072   1420.13733    1416.7081     896.0072
   1420.12207    1056.3029     670.4687   1420.12207    1056.3029     670.4687
   1420.10681     957.1679     606.8104   1420.10681     957.1679     606.8104
   1420.09155     962.5413     608.5717   1420.09155     962.5413     608.5717
   1420.07629    1086.2231     685.6882   1420.07629    1086.2231     685.6882
   1420.06104    1212.5829     764.5167   1420.06104    1212.5829     764.5167
   1420.04578    1366.3656     857.0116   1420.04578    1366.3656     857.0116
   1420.03052    1434.9003     898.3633   1420.03052    1434.9003     898.3633
   1420.01526    1361.4679     850.3716   1420.01526    1361.4679     850.3716
   1420.00000    1435.6172     895.1630   1420.00000    1435.6172     895.1630
   1419.98474    1509.7664     939.9543   1419.98474    1509.7664     939.9543
   1419.96948    1574.7808     978.3404   1419.96948    1574.7808     978.3404
   1419.95422    1628.3408    1009.6761   1419.95422    1628.3408    1009.6761
   1419.93896    1713.3647    1060.4771   1419.93896    1713.3647    1060.4771
   1419.92371    1734.9792    1070.6559   1419.92371    1734.9792    1070.6559
   1419.90845    1569.2369     970.7029   1419.90845    1569.2369     970.7029
   1419.89319    1301.7477     807.3776   1419.89319    1301.7477     807.3776
   1419.87793    1058.7653     658.0437   1419.87793    1058.7653     658.0437
   1419.86267     890.9677     556.1285   1419.86267     890.9677     556.1285
   1419.84741     807.8926     505.1040   1419.84741     807.8926     505.1040
   1419.83215     761.7783     476.5046   1419.83215     761.7783     476.5046
   1419.81689     731.3912     456.5898   1419.81689     731.3912     456.5898
   1419.80164     710.2585     443.0315   1419.80164     710.2585     443.0315
   1419.78638     695.8097     435.8566   1419.78638     695.8097     435.8566
   1419.77112     688.7769     428.3853   1419.77112     688.7769     428.3853
   1419.75586     683.0709     425.1552   1419.75586     683.0709     425.1552
   1419.74060     677.5141     421.3330   1419.74060     677.5141     421.3330
   1419.72534     672.0890     419.8835   1419.72534     672.0890     419.8835
   1419.71008     669.0516     415.9871   1419.71008     669.0516     415.9871
   1419.69482     666.1445     414.1829   1419.69482     666.1445     414.1829
   1419.67957     663.5315     412.1213   1419.67957     663.5315     412.1213
   1419.66431     661.9904     410.9492   1419.66431     661.9904     410.9492
   1419.64905     662.4006     410.4600   1419.64905     662.4006     410.4600
   1419.63379     661.6586     409.7580   1419.63379     661.6586     409.7580
   1419.61853     662.3873     408.7764   1419.61853     662.3873     408.7764
   1419.60327     661.9750     409.6388   1419.60327     661.9750     409.6388
   1419.58801     662.6684     408.8790   1419.58801     662.6684     408.8790
   1419.57275     662.2265     408.0232   1419.57275     662.2265     408.0232
   1419.55750     662.1390     407.5874   1419.55750     662.1390     407.5874
   1419.54224     661.4683     407.3597   1419.54224     661.4683     407.3597
   1419.52698     661.6521     406.6440   1419.52698     661.6521     406.6440
   1419.51172     660.7191     406.2858   1419.51172     660.7191     406.2858
   1419.49646     661.6746     405.5073   1419.49646     661.6746     405.5073
   1419.48120     661.2498     405.2576   1419.48120     661.2498     405.2576
   1419.46594     661.6101     405.1842   1419.46594     661.6101     405.1842
   1419.45068     661.0863     404.9668   1419.45068     661.0863     404.9668
   1419.43542     661.7340     404.3369   1419.43542     661.7340     404.3369
   1419.42017     661.6448     404.4460   1419.42017     661.6448     404.4460
   1419.40491     663.2335     405.0621   1419.40491     663.2335     405.0621
   1419.38965     662.8668     404.2498   1419.38965     662.8668     404.2498
   1419.37439     664.5416     404.3771   1419.37439     664.5416     404.3771
   1419.35913     663.6973     404.3936   1419.35913     663.6973     404.3936
   1419.34387     664.5762     404.3678   1419.34387     664.5762     404.3678
   1419.32861     664.5062     404.1973   1419.32861     664.5062     404.1973
   1419.31335     665.7919     404.1602   1419.31335     665.7919     404.1602
   1419.29810     666.4378     404.0504   1419.29810     666.4378     404.0504
   1419.28284     666.3373     403.7956   1419.28284     666.3373     403.7956
   1419.26758     666.7345     404.6151   1419.26758     666.7345     404.6151
   1419.25232     668.3176     404.9202   1419.25232     668.3176     404.9202
   1419.23706     669.1190     403.9771   1419.23706     669.1190     403.9771
   1419.22180     668.8203     403.6826   1419.22180     668.8203     403.6826
   1419.20654     670.0536     404.8836   1419.20654     670.0536     404.8836
   1419.19128     669.7893     404.1418   1419.19128     669.7893     404.1418
   1419.17603     669.6598     404.1151   1419.17603     669.6598     404.1151
   1419.16077     671.1196     404.2957   1419.16077     671.1196     404.2957
   1419.14551     671.3380     404.1783   1419.14551     671.3380     404.1783
   1419.13025     671.9404     404.7882   1419.13025     671.9404     404.7882
   1419.11499     672.0726     404.6935   1419.11499     672.0726     404.6935
   1419.09973     672.9324     405.1584   1419.09973     672.9324     405.1584
   1419.08447     673.9315     404.9445   1419.08447     673.9315     404.9445
   1419.06921     674.8367     404.7651   1419.06921     674.8367     404.7651
   1419.05396     675.0226     404.7662   1419.05396     675.0226     404.7662
   1419.03870     675.0895     405.6791   1419.03870     675.0895     405.6791
   1419.02344     676.6445     405.7019   1419.02344     676.6445     405.7019
   1419.00818     678.1094     405.8079   1419.00818     678.1094     405.8079
   1418.99292     678.3765     405.5898   1418.99292     678.3765     405.5898
   1418.97766     677.9294     405.7220   1418.97766     677.9294     405.7220
   1418.96240     678.4736     405.8770   1418.96240     678.4736     405.8770
   1418.94714     679.3433     405.8819   1418.94714     679.3433     405.8819
   1418.93188     680.5079     406.8900   1418.93188     680.5079     406.8900
   1418.91663     681.5222     407.2383   1418.91663     681.5222     407.2383
   1418.90137     681.8891     406.9600   1418.90137     681.8891     406.9600
   1418.88611     681.2087     407.2676   1418.88611     681.2087     407.2676
   1418.87085     683.3340     407.5729   1418.87085     683.3340     407.5729
   1418.85559     684.9632     407.8389   1418.85559     684.9632     407.8389
   1418.84033     684.5521     408.8362   1418.84033     684.5521     408.8362
   1418.82507     685.8972     408.5043   1418.82507     685.8972     408.5043
   1418.80981     686.9484     408.7517   1418.80981     686.9484     408.7517
   1418.79456     687.7073     409.2664   1418.79456     687.7073     409.2664
   1418.77930     686.9139     409.4084   1418.77930     686.9139     409.4084
   1418.76404     689.9200     409.9335   1418.76404     689.9200     409.9335
   1418.74878     690.0610     410.3298   1418.74878     690.0610     410.3298
   1418.73352     691.0858     410.8580   1418.73352     691.0858     410.8580
   1418.71826     692.5505     411.0896   1418.71826     692.5505     411.0896
   1418.70300     692.0127     410.5448   1418.70300     692.0127     410.5448
   1418.68774     692.5007     411.5642   1418.68774     692.5007     411.5642
   1418.67249     693.7220     412.7127   1418.67249     693.7220     412.7127
   1418.65723     694.1568     412.1021   1418.65723     694.1568     412.1021
   1418.64197     695.3747     412.2652   1418.64197     695.3747     412.2652
   1418.62671     696.7878     413.3307   1418.62671     696.7878     413.3307
   1418.61145     697.5605     413.7370   1418.61145     697.5605     413.7370
   1418.59619     699.5595     413.4997   1418.59619     699.5595     413.4997
   1418.58093     698.9439     413.7655   1418.58093     698.9439     413.7655
   1418.56567     699.8781     414.4537   1418.56567     699.8781     414.4537
   1418.55042     701.8320     415.4693   1418.55042     701.8320     415.4693
   1418.53516     702.3095     415.8192   1418.53516     702.3095     415.8192
   1418.51990     703.6923     416.1011   1418.51990     703.6923     416.1011
   1418.50464     704.9368     416.4128   1418.50464     704.9368     416.4128
   1418.48938     704.5916     417.1956   1418.48938     704.5916     417.1956
   1418.47412     706.0417     417.4776   1418.47412     706.0417     417.4776
   1418.45886     706.5563     417.9550   1418.45886     706.5563     417.9550
   1418.44360     708.4290     418.2406   1418.44360     708.4290     418.2406
   1418.42834     708.3923     419.2927   1418.42834     708.3923     419.2927
   1418.41309     710.6662     419.5647   1418.41309     710.6662     419.5647
   1418.39783     710.8344     420.3162   1418.39783     710.8344     420.3162
   1418.38257     713.3955     421.1877   1418.38257     713.3955     421.1877
   1418.36731     713.8203     420.8355   1418.36731     713.8203     420.8355
   1418.35205     714.5649     422.7639   1418.35205     714.5649     422.7639
   1418.33679     715.6630     422.3738   1418.33679     715.6630     422.3738
   1418.32153     715.7946     422.6843   1418.32153     715.7946     422.6843
   1418.30627     716.4274     423.3616   1418.30627     716.4274     423.3616
   1418.29102     719.4007     424.4680   1418.29102     719.4007     424.4680
   1418.27576     719.8764     424.2217   1418.27576     719.8764     424.2217
   1418.26050     719.2282     424.7596   1418.26050     719.2282     424.7596
   1418.24524     724.2598     425.1200   1418.24524     724.2598     425.1200
   1418.22998     723.3628     426.1079   1418.22998     723.3628     426.1079
   1418.21472     725.0996     426.3860   1418.21472     725.0996     426.3860
   1418.19946     725.5777     427.2214   1418.19946     725.5777     427.2214
   1418.18420     725.9738     427.8683   1418.18420     725.9738     427.8683
   1418.16895     727.9677     428.2883   1418.16895     727.9677     428.2883
   1418.15369     728.1151     429.3763   1418.15369     728.1151     429.3763
   1418.13843     730.2487     429.9385   1418.13843     730.2487     429.9385
   1418.12317     732.0211     431.1237   1418.12317     732.0211     431.1237
   1418.10791     732.3494     430.4806   1418.10791     732.3494     430.4806
   1418.09265     734.2124     432.4926   1418.09265     734.2124     432.4926
   1418.07739     734.3697     432.3703   1418.07739     734.3697     432.3703
   1418.06213     735.1599     432.9793   1418.06213     735.1599     432.9793
   1418.04688     737.0202     432.9631   1418.04688     737.0202     432.9631
   1418.03162     737.7447     434.0670   1418.03162     737.7447     434.0670
   1418.01636     739.5639     435.3069   1418.01636     739.5639     435.3069
   1418.00110     740.1667     436.3268   1418.00110     740.1667     436.3268
   1417.98584     740.4577     436.3841   1417.98584     740.4577     436.3841
   1417.97058     740.9747     436.7377   1417.97058     740.9747     436.7377
   1417.95532     744.4136     437.7285   1417.95532     744.4136     437.7285
   1417.94006     745.2285     438.2770   1417.94006     745.2285     438.2770
   1417.92480     745.6282     438.8823   1417.92480     745.6282     438.8823
   1417.90955     747.1303     439.6453   1417.90955     747.1303     439.6453
   1417.89429     749.0140     440.2209   1417.89429     749.0140     440.2209
   1417.87903     750.6184     440.9567   1417.87903     750.6184     440.9567
   1417.86377     750.6938     441.8593   1417.86377     750.6938     441.8593
   1417.84851     751.4001     442.2450   1417.84851     751.4001     442.2450
   1417.83325     752.3427     442.9690   1417.83325     752.3427     442.9690
   1417.81799     754.4805     443.4793   1417.81799     754.4805     443.4793
   1417.80273     755.4727     444.6171   1417.80273     755.4727     444.6171
   1417.78748     756.1843     446.0773   1417.78748     756.1843     446.0773
   1417.77222     757.5014     445.4732   1417.77222     757.5014     445.4732
   1417.75696     758.6957     446.2948   1417.75696     758.6957     446.2948
   1417.74170     760.5270     447.4526   1417.74170     760.5270     447.4526
   1417.72644     760.6552     447.8170   1417.72644     760.6552     447.8170
   1417.71118     761.2302     448.1950   1417.71118     761.2302     448.1950
   1417.69592     762.3609     449.4150   1417.69592     762.3609     449.4150
   1417.68066     763.3670     449.7919   1417.68066     763.3670     449.7919
   1417.66541     764.8902     450.7813   1417.66541     764.8902     450.7813
   1417.65015     766.1237     451.0348   1417.65015     766.1237     451.0348
   1417.63489     767.5879     452.4170   1417.63489     767.5879     452.4170
   1417.61963     769.0864     453.0843   1417.61963     769.0864     453.0843
   1417.60437     769.7151     454.0107   1417.60437     769.7151     454.0107
   1417.58911     771.8489     454.5538   1417.58911     771.8489     454.5538
   1417.57385     772.8953     455.0854   1417.57385     772.8953     455.0854
   1417.55859     774.0737     455.8333   1417.55859     774.0737     455.8333
   1417.54333     773.8929     456.4417   1417.54333     773.8929     456.4417
   1417.52808     776.4879     457.0131   1417.52808     776.4879     457.0131
   1417.51282     776.5311     457.2415   1417.51282     776.5311     457.2415
   1417.49756     777.9776     458.8924   1417.49756     777.9776     458.8924
   1417.48230     778.7974     459.0776   1417.48230     778.7974     459.0776
   1417.46704     779.6633     460.3666   1417.46704     779.6633     460.3666
   1417.45178     781.7123     459.7655   1417.45178     781.7123     459.7655
   1417.43652     782.5327     460.9012   1417.43652     782.5327     460.9012
   1417.42126     783.8260     461.9122   1417.42126     783.8260     461.9122
   1417.40601     785.1158     462.6517   1417.40601     785.1158     462.6517
   1417.39075     786.1531     462.6015   1417.39075     786.1531     462.6015
   1417.37549     787.2947     463.8480   1417.37549     787.2947     463.8480
   1417.36023     786.8785     464.6626   1417.36023     786.8785     464.6626
   1417.34497     787.9503     464.9255   1417.34497     787.9503     464.9255
   1417.32971     791.3237     465.8894   1417.32971     791.3237     465.8894
   1417.31445     789.8596     466.1143   1417.31445     789.8596     466.1143
   1417.29919     792.2294     467.4669   1417.29919     792.2294     467.4669
   1417.28394     792.6239     468.6768   1417.28394     792.6239     468.6768
   1417.26868     793.2200     469.0641   1417.26868     793.2200     469.0641
   1417.25342     793.6645     469.3675   1417.25342     793.6645     469.3675
   1417.23816     795.4517     469.7653   1417.23816     795.4517     469.7653
   1417.22290     796.7677     470.6239   1417.22290     796.7677     470.6239
   1417.20764     797.7086     471.1942   1417.20764     797.7086     471.1942
   1417.19238     797.6905     471.7522   1417.19238     797.6905     471.7522
   1417.17712     797.8912     473.0588   1417.17712     797.8912     473.0588
   1417.16187     800.2255     472.8866   1417.16187     800.2255     472.8866
   1417.14661     801.2283     474.1142   1417.14661     801.2283     474.1142
   1417.13135     799.3943     474.5239   1417.13135     799.3943     474.5239
   1417.11609     802.8677     475.5658   1417.11609     802.8677     475.5658
   1417.10083     802.8075     475.1922   1417.10083     802.8075     475.1922
   1417.08557     804.6331     475.8420   1417.08557     804.6331     475.8420
   1417.07031     804.6884     476.4995   1417.07031     804.6884     476.4995
   1417.05505     805.9518     477.5035   1417.05505     805.9518     477.5035
   1417.03979     807.9128     478.0876   1417.03979     807.9128     478.0876
   1417.02454     807.9024     478.0627   1417.02454     807.9024     478.0627
   1417.00928     806.8228     478.6189   1417.00928     806.8228     478.6189
   1416.99402     808.4880     479.2463   1416.99402     808.4880     479.2463
   1416.97876     809.4387     479.5703   1416.97876     809.4387     479.5703
   1416.96350     809.9575     479.9713   1416.96350     809.9575     479.9713
   1416.94824     810.0910     480.3072   1416.94824     810.0910     480.3072
   1416.93298     810.7604     480.7234   1416.93298     810.7604     480.7234
   1416.91772     809.9777     480.9400   1416.91772     809.9777     480.9400
   1416.90247     811.1379     481.1629   1416.90247     811.1379     481.1629
   1416.88721     812.8633     482.7012   1416.88721     812.8633     482.7012
   1416.87195     813.3047     483.1959   1416.87195     813.3047     483.1959
   1416.85669     814.1083     482.8094   1416.85669     814.1083     482.8094
   1416.84143     813.9805     483.9025   1416.84143     813.9805     483.9025
   1416.82617     815.6171     483.7424   1416.82617     815.6171     483.7424
   1416.81091     814.1981     483.5442   1416.81091     814.1981     483.5442
   1416.79565     816.0015     483.7466   1416.79565     816.0015     483.7466
   1416.78040     815.6116     484.9396   1416.78040     815.6116     484.9396
   1416.76514     817.6980     484.3030   1416.76514     817.6980     484.3030
   1416.74988     817.6873     484.6898   1416.74988     817.6873     484.6898
   1416.73462     817.3741     485.3115   1416.73462     817.3741     485.3115
   1416.71936     818.2433     486.5038   1416.71936     818.2433     486.5038
   1416.70410     819.2291     486.0395   1416.70410     819.2291     486.0395
   1416.68884     818.5616     486.6328   1416.68884     818.5616     486.6328
   1416.67358     818.9968     486.8781   1416.67358     818.9968     486.8781
   1416.65833     818.7147     486.1825   1416.65833     818.7147     486.1825
   1416.64307     820.1526     486.1535   1416.64307     820.1526     486.1535
   1416.62781     818.0750     486.9012   1416.62781     818.0750     486.9012
   1416.61255     819.0552     486.9462   1416.61255     819.0552     486.9462
   1416.59729     820.1786     487.6693   1416.59729     820.1786     487.6693
   1416.58203     818.5947     487.2301   1416.58203     818.5947     487.2301
   1416.56677     818.5870     487.7377   1416.56677     818.5870     487.7377
   1416.55151     819.4030     487.4814   1416.55151     819.4030     487.4814
   1416.53625     818.6236     488.0192   1416.53625     818.6236     488.0192
   1416.52100     819.8404     488.4849   1416.52100     819.8404     488.4849
   1416.50574     818.7705     487.9059   1416.50574     818.7705     487.9059
   1416.49048     819.8226     488.3966   1416.49048     819.8226     488.3966
   1416.47522     821.8714     488.2444   1416.47522     821.8714     488.2444
   1416.45996     821.3290     489.0569   1416.45996     821.3290     489.0569
   1416.44470     818.8568     488.1216   1416.44470     818.8568     488.1216
   1416.42944     819.7430     488.1037   1416.42944     819.7430     488.1037
   1416.41418     820.2278     488.2964   1416.41418     820.2278     488.2964
   1416.39893     820.4966     487.4381   1416.39893     820.4966     487.4381
   1416.38367     821.2731     487.7260   1416.38367     821.2731     487.7260
   1416.36841     821.6218     488.7588   1416.36841     821.6218     488.7588
   1416.35315     820.2834     488.5769   1416.35315     820.2834     488.5769
   1416.33789     818.8867     488.2250   1416.33789     818.8867     488.2250
   1416.32263     820.9005     488.1667   1416.32263     820.9005     488.1667
   1416.30737     817.5542     487.5239   1416.30737     817.5542     487.5239
   1416.29211     820.5409     488.4978   1416.29211     820.5409     488.4978
   1416.27686     819.5059     487.2345   1416.27686     819.5059     487.2345
   1416.26160     818.9081     487.7246   1416.26160     818.9081     487.7246
   1416.24634     817.9661     488.6187   1416.24634     817.9661     488.6187
   1416.23108     817.5450     487.3430   1416.23108     817.5450     487.3430
   1416.21582     817.5089     487.9507   1416.21582     817.5089     487.9507
   1416.20056     816.9229     487.0849   1416.20056     816.9229     487.0849
   1416.18530     817.3575     487.3960   1416.18530     817.3575     487.3960
   1416.17004     816.1844     486.9870   1416.17004     816.1844     486.9870
   1416.15479     816.3384     487.0473   1416.15479     816.3384     487.0473
   1416.13953     815.3795     486.8708   1416.13953     815.3795     486.8708
   1416.12427     814.5067     486.1668   1416.12427     814.5067     486.1668
   1416.10901     814.2388     486.2833   1416.10901     814.2388     486.2833
   1416.09375     814.4146     486.9583   1416.09375     814.4146     486.9583
   1416.07849     812.8862     486.2398   1416.07849     812.8862     486.2398
   1416.06323     812.5746     485.6017   1416.06323     812.5746     485.6017
   1416.04797     813.7568     486.3447   1416.04797     813.7568     486.3447
   1416.03271     813.6799     485.9268   1416.03271     813.6799     485.9268
   1416.01746     811.8908     485.4652   1416.01746     811.8908     485.4652
   1416.00220     809.8438     484.8851   1416.00220     809.8438     484.8851
   1415.98694     811.1359     485.8039   1415.98694     811.1359     485.8039
   1415.97168     809.6461     484.9805   1415.97168     809.6461     484.9805
   1415.95642     809.3020     484.8248   1415.95642     809.3020     484.8248
   1415.94116     808.6626     484.8336   1415.94116     808.6626     484.8336
   1415.92590     808.4756     484.1482   1415.92590     808.4756     484.1482
   1415.91064     807.8141     484.3548   1415.91064     807.8141     484.3548
   1415.89539     805.9597     483.8050   1415.89539     805.9597     483.8050
   1415.88013     804.6865     484.0670   1415.88013     804.6865     484.0670
   1415.86487     805.7598     483.3593   1415.86487     805.7598     483.3593
   1415.84961     805.5272     483.0137   1415.84961     805.5272     483.0137
   1415.83435     803.8357     483.1979   1415.83435     803.8357     483.1979
   1415.81909     803.5733     482.5988   1415.81909     803.5733     482.5988
   1415.80383     802.3312     482.3245   1415.80383     802.3312     482.3245
   1415.78857     800.8279     482.1564   1415.78857     800.8279     482.1564
   1415.77332     799.9548     482.2421   1415.77332     799.9548     482.2421
   1415.75806     800.3879     481.9442   1415.75806     800.3879     481.9442
   1415.74280     799.1560     481.8731   1415.74280     799.1560     481.8731
   1415.72754     797.8573     480.9251   1415.72754     797.8573     480.9251
   1415.71228     797.6672     481.1237   1415.71228     797.6672     481.1237
   1415.69702     797.6154     481.1143   1415.69702     797.6154     481.1143
   1415.68176     795.4843     480.0898   1415.68176     795.4843     480.0898
   1415.66650     795.6874     479.6117   1415.66650     795.6874     479.6117
   1415.65125     793.3290     479.6625   1415.65125     793.3290     479.6625
   1415.63599     792.6543     480.3358   1415.63599     792.6543     480.3358
   1415.62073     793.9347     478.6005   1415.62073     793.9347     478.6005
   1415.60547     792.5331     478.9749   1415.60547     792.5331     478.9749
   1415.59021     790.6589     479.2390   1415.59021     790.6589     479.2390
   1415.57495     789.7832     478.5122   1415.57495     789.7832     478.5122
   1415.55969     788.4246     478.7457   1415.55969     788.4246     478.7457
   1415.54443     787.8459     478.0285   1415.54443     787.8459     478.0285
   1415.52917     786.2549     477.9817   1415.52917     786.2549     477.9817
   1415.51392     784.5461     476.8353   1415.51392     784.5461     476.8353
   1415.49866     783.7943     476.6153   1415.49866     783.7943     476.6153
   1415.48340     782.4753     476.4832   1415.48340     782.4753     476.4832
   1415.46814     782.4518     475.7713   1415.46814     782.4518     475.7713
   1415.45288     781.1946     476.3087   1415.45288     781.1946     476.3087
   1415.43762     780.0507     475.7023   1415.43762     780.0507     475.7023
   1415.42236     778.3887     474.5236   1415.42236     778.3887     474.5236
   1415.40710     778.1070     474.6602   1415.40710     778.1070     474.6602
   1415.39185     774.0549     475.0169   1415.39185     774.0549     475.0169
   1415.37659     774.4214     473.5956   1415.37659     774.4214     473.5956
   1415.36133     773.3773     473.6398   1415.36133     773.3773     473.6398
   1415.34607     773.4485     473.7853   1415.34607     773.4485     473.7853
   1415.33081     771.9376     473.6125   1415.33081     771.9376     473.6125
   1415.31555     769.5541     473.0188   1415.31555     769.5541     473.0188
   1415.30029     768.0542     472.1813   1415.30029     768.0542     472.1813
   1415.28503     767.6860     471.6988   1415.28503     767.6860     471.6988
   1415.26978     766.2365     470.4797   1415.26978     766.2365     470.4797
   1415.25452     763.7956     470.9388   1415.25452     763.7956     470.9388
   1415.23926     763.3463     470.3031   1415.23926     763.3463     470.3031
   1415.22400     762.2684     469.7721   1415.22400     762.2684     469.7721
   1415.20874     759.5895     469.6408   1415.20874     759.5895     469.6408
   1415.19348     759.4060     469.5389   1415.19348     759.4060     469.5389
   1415.17822     757.7426     468.1136   1415.17822     757.7426     468.1136
   1415.16296     754.3862     467.9538   1415.16296     754.3862     467.9538
   1415.14771     754.2651     467.4791   1415.14771     754.2651     467.4791
   1415.13245     752.7255     466.4960   1415.13245     752.7255     466.4960
   1415.11719     750.9765     466.3233   1415.11719     750.9765     466.3233
   1415.10193     749.7885     466.2964   1415.10193     749.7885     466.2964
   1415.08667     747.6512     465.8203   1415.08667     747.6512     465.8203
   1415.07141     746.2417     464.8726   1415.07141     746.2417     464.8726
   1415.05615     744.7537     464.7578   1415.05615     744.7537     464.7578
   1415.04089     743.2488     463.0590   1415.04089     743.2488     463.0590
   1415.02563     742.2167     463.4981   1415.02563     742.2167     463.4981
   1415.01038     740.8040     463.5649   1415.01038     740.8040     463.5649
   1414.99512     738.9250     461.5615   1414.99512     738.9250     461.5615
   1414.97986     735.1854     461.8854   1414.97986     735.1854     461.8854
   1414.96460     734.9006     460.9705   1414.96460     734.9006     460.9705
   1414.94934     732.9939     459.7793   1414.94934     732.9939     459.7793
   1414.93408     731.9142     458.9527   1414.93408     731.9142     458.9527
   1414.91882     728.7965     459.1187   1414.91882     728.7965     459.1187
   1414.90356     727.9196     457.8502   1414.90356     727.9196     457.8502
   1414.88831     725.8190     457.7568   1414.88831     725.8190     457.7568
   1414.87305     724.7384     456.2908   1414.87305     724.7384     456.2908
   1414.85779     721.2531     456.4364   1414.85779     721.2531     456.4364
   1414.84253     721.4542     455.3456   1414.84253     721.4542     455.3456
   1414.82727     718.0692     454.7613   1414.82727     718.0692     454.7613
   1414.81201     715.7013     453.5508   1414.81201     715.7013     453.5508
   1414.79675     714.1733     453.0568   1414.79675     714.1733     453.0568
   1414.78149     712.3179     452.4657   1414.78149     712.3179     452.4657
   1414.76624     710.6422     451.6365   1414.76624     710.6422     451.6365
   1414.75098     706.5161     450.5586   1414.75098     706.5161     450.5586
   1414.73572     706.5823     449.6255   1414.73572     706.5823     449.6255
   1414.72046     704.0983     449.3669   1414.72046     704.0983     449.3669
   1414.70520     701.3410     447.9741   1414.70520     701.3410     447.9741
   1414.68994     697.9301     447.4846   1414.68994     697.9301     447.4846
   1414.67468     697.1352     446.9444   1414.67468     697.1352     446.9444
   1414.65942     695.3472     445.5707   1414.65942     695.3472     445.5707
   1414.64417     692.7435     444.5799   1414.64417     692.7435     444.5799
   1414.62891     690.7523     444.0742   1414.62891     690.7523     444.0742
   1414.61365     687.9349     442.5983   1414.61365     687.9349     442.5983
   1414.59839     686.5989     442.1130   1414.59839     686.5989     442.1130
   1414.58313     683.2885     441.0544   1414.58313     683.2885     441.0544
   1414.56787     681.6895     440.4060   1414.56787     681.6895     440.4060
   1414.55261     678.2783     439.1039   1414.55261     678.2783     439.1039
   1414.53735     675.7665     438.8996   1414.53735     675.7665     438.8996
   1414.52209     674.1216     436.9134   1414.52209     674.1216     436.9134
   1414.50684     672.8512     436.7189   1414.50684     672.8512     436.7189
   1414.49158     668.9777     435.1887   1414.49158     668.9777     435.1887
   1414.47632     666.1139     435.0679   1414.47632     666.1139     435.0679
   1414.46106     664.3684     433.4203   1414.46106     664.3684     433.4203
   1414.44580     661.5688     433.3532   1414.44580     661.5688     433.3532
   1414.43054     658.9413     431.8153   1414.43054     658.9413     431.8153
   1414.41528     656.3755     430.1419   1414.41528     656.3755     430.1419
   1414.40002     654.0351     429.7163   1414.40002     654.0351     429.7163
   1414.38477     651.2509     427.7003   1414.38477     651.2509     427.7003
   1414.36951     648.6306     426.9231   1414.36951     648.6306     426.9231
   1414.35425     647.1884     426.1710   1414.35425     647.1884     426.1710
   1414.33899     643.3351     424.2805   1414.33899     643.3351     424.2805
   1414.32373     641.0342     423.3432   1414.32373     641.0342     423.3432
   1414.30847     637.8139     422.0889   1414.30847     637.8139     422.0889
   1414.29321     635.8622     420.9865   1414.29321     635.8622     420.9865
   1414.27795     632.7598     420.2234   1414.27795     632.7598     420.2234
   1414.26270     629.1189     418.8519   1414.26270     629.1189     418.8519
   1414.24744     627.5175     418.2465   1414.24744     627.5175     418.2465
   1414.23218     624.8129     417.0311   1414.23218     624.8129     417.0311
   1414.21692     621.3840     415.6382   1414.21692     621.3840     415.6382
   1414.20166     618.9172     414.1365   1414.20166     618.9172     414.1365
   1414.18640     615.3246     412.2084   1414.18640     615.3246     412.2084
   1414.17114     613.9631     411.7080   1414.17114     613.9631     411.7080
   1414.15588     610.1542     409.6490   1414.15588     610.1542     409.6490
   1414.14062     609.1602     409.0771   1414.14062     609.1602     409.0771
   1414.12537     604.3423     407.0710   1414.12537     604.3423     407.0710
   1414.11011     601.2873     405.7013   1414.11011     601.2873     405.7013
   1414.09485     599.6241     404.6121   1414.09485     599.6241     404.6121
   1414.07959     596.5170     403.2276   1414.07959     596.5170     403.2276
   1414.06433     593.4496     401.9305   1414.06433     593.4496     401.9305
   1414.04907     590.2624     400.9420   1414.04907     590.2624     400.9420
   1414.03381     587.0997     399.2139   1414.03381     587.0997     399.2139
   1414.01855     585.1197     398.3113   1414.01855     585.1197     398.3113
   1414.00330     608.0706     403.2742   1414.00330     608.0706     403.2742
   1413.98804     579.4177     395.4674   1413.98804     579.4177     395.4674
   1413.97278     576.4510     393.7088   1413.97278     576.4510     393.7088
   1413.95752     571.9237     391.6932   1413.95752     571.9237     391.6932
   1413.94226     569.0485     390.0738   1413.94226     569.0485     390.0738
   1413.92700     566.1705     388.8015   1413.92700     566.1705     388.8015
   1413.91174     563.8169     387.3696   1413.91174     563.8169     387.3696
   1413.89648     560.1708     386.4088   1413.89648     560.1708     386.4088
   1413.88123     557.1686     385.0816   1413.88123     557.1686     385.0816
   1413.86597     553.3367     383.7826   1413.86597     553.3367     383.7826
   1413.85071     550.1644     382.2103   1413.85071     550.1644     382.2103
   1413.83545     548.3329     380.2567   1413.83545     548.3329     380.2567
   1413.82019     545.0130     378.6857   1413.82019     545.0130     378.6857
   1413.80493     542.6154     377.0409   1413.80493     542.6154     377.0409
   1413.78967     539.6967     376.0226   1413.78967     539.6967     376.0226
   1413.77441     535.7976     373.9381   1413.77441     535.7976     373.9381
   1413.75916     532.4086     372.7040   1413.75916     532.4086     372.7040
   1413.74390     529.9885     370.9570   1413.74390     529.9885     370.9570
   1413.72864     526.1690     369.3279   1413.72864     526.1690     369.3279
   1413.71338     523.3351     368.1281   1413.71338     523.3351     368.1281
   1413.69812     520.6329     367.0816   1413.69812     520.6329     367.0816
   1413.68286     518.1561     364.7282   1413.68286     518.1561     364.7282
   1413.66760     515.3129     363.4352   1413.66760     515.3129     363.4352
   1413.65234     512.0721     361.8622   1413.65234     512.0721     361.8622
   1413.63708     508.4838     360.3074   1413.63708     508.4838     360.3074
   1413.62183     505.9776     359.3413   1413.62183     505.9776     359.3413
   1413.60657     501.7488     357.1296   1413.60657     501.7488     357.1296
   1413.59131     499.7932     355.8482   1413.59131     499.7932     355.8482
   1413.57605     496.5910     354.1896   1413.57605     496.5910     354.1896
   1413.56079     493.6065     352.6193   1413.56079     493.6065     352.6193
   1413.54553     489.9940     350.2933   1413.54553     489.9940     350.2933
   1413.53027     487.0601     349.4407   1413.53027     487.0601     349.4407
   1413.51501     483.7590     347.4863   1413.51501     483.7590     347.4863
   1413.49976     482.0010     346.3966   1413.49976     482.0010     346.3966
   1413.48450     478.0964     344.3245   1413.48450     478.0964     344.3245
   1413.46924     474.7773     343.4268   1413.46924     474.7773     343.4268
   1413.45398     473.5723     341.3592   1413.45398     473.5723     341.3592
   1413.43872     470.3079     339.9523   1413.43872     470.3079     339.9523
   1413.42346     466.9093     338.1148   1413.42346     466.9093     338.1148
   1413.40820     463.7972     336.7157   1413.40820     463.7972     336.7157
   1413.39294     462.1453     335.4153   1413.39294     462.1453     335.4153
   1413.37769     458.7234     333.5173   1413.37769     458.7234     333.5173
   1413.36243     455.6966     331.7236   1413.36243     455.6966     331.7236
   1413.34717     453.1512     331.1718   1413.34717     453.1512     331.1718
   1413.33191     450.1193     329.3242   1413.33191     450.1193     329.3242
   1413.31665     448.2090     327.4153   1413.31665     448.2090     327.4153
   1413.30139     445.2480     326.0322   1413.30139     445.2480     326.0322
   1413.28613     442.6665     324.6594   1413.28613     442.6665     324.6594
   1413.27087     439.6036     322.8248   1413.27087     439.6036     322.8248
   1413.25562     437.4100     322.0022   1413.25562     437.4100     322.0022
   1413.24036     434.2241     320.1069   1413.24036     434.2241     320.1069
   1413.22510     431.9167     318.3196   1413.22510     431.9167     318.3196
   1413.20984     429.5738     317.4644   1413.20984     429.5738     317.4644
   1413.19458     426.8197     315.4020   1413.19458     426.8197     315.4020
   1413.17932     424.4070     314.6037   1413.17932     424.4070     314.6037
   1413.16406     421.4614     312.7585   1413.16406     421.4614     312.7585
   1413.14880     418.9246     311.4025   1413.14880     418.9246     311.4025
   1413.13354     417.0630     310.1180   1413.13354     417.0630     310.1180
   1413.11829     414.4151     308.9514   1413.11829     414.4151     308.9514
   1413.10303     411.2622     307.3811   1413.10303     411.2622     307.3811
   1413.08777     409.6952     305.6205   1413.08777     409.6952     305.6205
   1413.07251     407.8381     304.7639   1413.07251     407.8381     304.7639
   1413.05725     405.7794     303.1686   1413.05725     405.7794     303.1686
   1413.04199     403.7729     302.2351   1413.04199     403.7729     302.2351
   1413.02673     401.1019     300.6903   1413.02673     401.1019     300.6903
   1413.01147     399.7565     299.4988   1413.01147     399.7565     299.4988
   1412.99622     397.3280     298.2464   1412.99622     397.3280     298.2464
   1412.98096     395.4510     296.9449   1412.98096     395.4510     296.9449
   1412.96570     393.3242     296.2081   1412.96570     393.3242     296.2081
   1412.95044     390.5795     294.6719   1412.95044     390.5795     294.6719
   1412.93518     389.6741     293.7332   1412.93518     389.6741     293.7332
   1412.91992     387.5511     292.6734   1412.91992     387.5511     292.6734
   1412.90466     385.1310     291.2410   1412.90466     385.1310     291.2410
   1412.88940     383.7402     290.2132   1412.88940     383.7402     290.2132
   1412.87415     382.2189     289.0843   1412.87415     382.2189     289.0843
   1412.85889     380.7686     288.0846   1412.85889     380.7686     288.0846
   1412.84363     379.2997     287.6633   1412.84363     379.2997     287.6633
   1412.82837     377.7395     286.0699   1412.82837     377.7395     286.0699
   1412.81311     375.6409     285.0540   1412.81311     375.6409     285.0540
   1412.79785     374.3124     284.4574   1412.79785     374.3124     284.4574
   1412.78259     372.6783     283.4573   1412.78259     372.6783     283.4573
   1412.76733     371.9878     282.5694   1412.76733     371.9878     282.5694
   1412.75208     370.2988     281.3896   1412.75208     370.2988     281.3896
   1412.73682     369.1655     280.9347   1412.73682     369.1655     280.9347
   1412.72156     368.2199     279.9622   1412.72156     368.2199     279.9622
   1412.70630     366.8070     279.3733   1412.70630     366.8070     279.3733
   1412.69104     365.6241     278.4189   1412.69104     365.6241     278.4189
   1412.67578     364.3203     277.8784   1412.67578     364.3203     277.8784
   1412.66052     363.5073     277.1706   1412.66052     363.5073     277.1706
   1412.64526     362.3694     276.5458   1412.64526     362.3694     276.5458
   1412.63000     361.2588     275.5634   1412.63000     361.2588     275.5634
   1412.61475     361.2702     275.2744   1412.61475     361.2702     275.2744
   1412.59949     359.7646     274.4814   1412.59949     359.7646     274.4814
   1412.58423     358.8252     274.2542   1412.58423     358.8252     274.2542
   1412.56897     358.6461     273.9000   1412.56897     358.6461     273.9000
   1412.55371     357.4767     273.4856   1412.55371     357.4767     273.4856
   1412.53845     356.9062     272.2756   1412.53845     356.9062     272.2756
   1412.52319     355.9004     272.2046   1412.52319     355.9004     272.2046
   1412.50793     355.9595     271.8035   1412.50793     355.9595     271.8035
   1412.49268     355.8739     271.8398   1412.49268     355.8739     271.8398
   1412.47742     355.1008     271.3104   1412.47742     355.1008     271.3104
   1412.46216     354.8344     271.8120   1412.46216     354.8344     271.8120
   1412.44690     354.4923     271.3193   1412.44690     354.4923     271.3193
   1412.43164     353.8326     270.5111   1412.43164     353.8326     270.5111
   1412.41638     354.3855     270.4299   1412.41638     354.3855     270.4299
   1412.40112     353.5392     270.8684   1412.40112     353.5392     270.8684
   1412.38586     353.8056     270.9362   1412.38586     353.8056     270.9362
   1412.37061     354.0052     270.6362   1412.37061     354.0052     270.6362
   1412.35535     353.4410     270.5088   1412.35535     353.4410     270.5088
   1412.34009     354.1263     270.5264   1412.34009     354.1263     270.5264
   1412.32483     354.0031     270.8970   1412.32483     354.0031     270.8970
   1412.30957     353.8675     271.0970   1412.30957     353.8675     271.0970
   1412.29431     354.4067     270.9657   1412.29431     354.4067     270.9657
   1412.27905     354.3453     271.2780   1412.27905     354.3453     271.2780
   1412.26379     354.6332     271.5527   1412.26379     354.6332     271.5527
   1412.24854     355.6833     271.9193   1412.24854     355.6833     271.9193
   1412.23328     356.0193     272.2061   1412.23328     356.0193     272.2061
   1412.21802     356.8517     272.9098   1412.21802     356.8517     272.9098
   1412.20276     356.9832     272.8667   1412.20276     356.9832     272.8667