#     FILENAME=!Skynet_57528_lach-hhg-170_20552_20993.cyb.fits
#     BASENAME=Skynet_57528_lach-hhg-170_20552_20993
#     SRC_NAME=lach-hhg-170
#     OBSERVER=hhgmadison16_9500
#     DATE_OBS=2016-05-20T18:19:56.500
#        OBSID=20552
#      SCANNUM=20993
#          MJD=57528.7649
#          UTC=66085
#     SCANTYPE=track
#     DATAMODE=HIRES
#     TUNEFREQ=1420.0000
# Actual_FREQ1=1420.0000
# Actual_FREQ2=1420.0000
#    LO1Tuning=6870.000
#     RFFILTER=1355_1435
#        OBSBW=-15.6250
#        NCHAN=1024 
#        FOCUS=37.0709
#           RA=05:19:28.54
#          DEC=37:18:55.67
#      RA(hrs)=5.324600
#     DEC(deg)=37.315500
#    AZIM(deg)=100.777
#    ELEV(deg)=84.936
#     IFattens=11.00, 9.00
#      WARNING=None
#    TCAL_XL1=7.9635
#    TCAL_YR1=9.1340
#    TCAL_XL2=7.9635
#    TCAL_YR2=9.1340
#     TRX_XL1=11.7060
#     TRX_YR1=11.7060
#     TRX_XL2=11.7060
#     TRX_YR2=11.7060
#        TAVE=1.0000
#Freq1(MHz)          XL1          YR1  Freq2(MHz)          XL2          YR2 

   1427.81250     377.8325     275.1622   1427.81250     377.8325     275.1622
   1427.79724     378.3339     275.9761   1427.79724     378.3339     275.9761
   1427.78198     378.5456     278.0594   1427.78198     378.5456     278.0594
   1427.76672     379.8179     278.8600   1427.76672     379.8179     278.8600
   1427.75146     380.8599     279.8952   1427.75146     380.8599     279.8952
   1427.73621     381.2920     281.2704   1427.73621     381.2920     281.2704
   1427.72095     381.7545     283.3077   1427.72095     381.7545     283.3077
   1427.70569     383.3980     284.7935   1427.70569     383.3980     284.7935
   1427.69043     384.0700     286.7463   1427.69043     384.0700     286.7463
   1427.67517     385.0964     287.8177   1427.67517     385.0964     287.8177
   1427.65991     386.1252     289.4937   1427.65991     386.1252     289.4937
   1427.64465     387.7622     291.3545   1427.64465     387.7622     291.3545
   1427.62939     388.9171     293.0201   1427.62939     388.9171     293.0201
   1427.61414     389.7266     294.1957   1427.61414     389.7266     294.1957
   1427.59888     390.8218     296.8500   1427.59888     390.8218     296.8500
   1427.58362     392.6521     298.4102   1427.58362     392.6521     298.4102
   1427.56836     393.9395     300.6179   1427.56836     393.9395     300.6179
   1427.55310     394.8656     302.5520   1427.55310     394.8656     302.5520
   1427.53784     396.8148     304.3078   1427.53784     396.8148     304.3078
   1427.52258     398.6185     306.2957   1427.52258     398.6185     306.2957
   1427.50732     400.1807     308.0704   1427.50732     400.1807     308.0704
   1427.49207     401.6783     310.4512   1427.49207     401.6783     310.4512
   1427.47681     403.6261     312.2228   1427.47681     403.6261     312.2228
   1427.46155     405.6311     314.4527   1427.46155     405.6311     314.4527
   1427.44629     407.1078     316.1996   1427.44629     407.1078     316.1996
   1427.43103     409.5364     318.3627   1427.43103     409.5364     318.3627
   1427.41577     410.4307     320.7231   1427.41577     410.4307     320.7231
   1427.40051     412.8197     322.8847   1427.40051     412.8197     322.8847
   1427.38525     414.7848     325.3260   1427.38525     414.7848     325.3260
   1427.37000     416.8585     327.7673   1427.37000     416.8585     327.7673
   1427.35474     418.7399     329.4413   1427.35474     418.7399     329.4413
   1427.33948     421.1057     332.1535   1427.33948     421.1057     332.1535
   1427.32422     423.4483     333.8374   1427.32422     423.4483     333.8374
   1427.30896     425.5448     336.7601   1427.30896     425.5448     336.7601
   1427.29370     427.1853     338.6619   1427.29370     427.1853     338.6619
   1427.27844     429.7997     341.2352   1427.27844     429.7997     341.2352
   1427.26318     432.1580     343.6393   1427.26318     432.1580     343.6393
   1427.24792     434.1543     346.3047   1427.24792     434.1543     346.3047
   1427.23267     436.7505     348.5493   1427.23267     436.7505     348.5493
   1427.21741     439.7594     351.0507   1427.21741     439.7594     351.0507
   1427.20215     442.0205     353.0332   1427.20215     442.0205     353.0332
   1427.18689     443.5237     355.8855   1427.18689     443.5237     355.8855
   1427.17163     447.1454     358.4119   1427.17163     447.1454     358.4119
   1427.15637     449.4765     361.1548   1427.15637     449.4765     361.1548
   1427.14111     451.9324     363.5326   1427.14111     451.9324     363.5326
   1427.12585     454.9336     366.3313   1427.12585     454.9336     366.3313
   1427.11060     456.9329     368.5464   1427.11060     456.9329     368.5464
   1427.09534     460.4285     370.9355   1427.09534     460.4285     370.9355
   1427.08008     463.2203     373.1638   1427.08008     463.2203     373.1638
   1427.06482     465.8192     375.7477   1427.06482     465.8192     375.7477
   1427.04956     468.0255     378.1527   1427.04956     468.0255     378.1527
   1427.03430     472.1280     380.9087   1427.03430     472.1280     380.9087
   1427.01904     473.8494     383.6329   1427.01904     473.8494     383.6329
   1427.00378     476.2113     385.7328   1427.00378     476.2113     385.7328
   1426.98853     479.7455     388.8318   1426.98853     479.7455     388.8318
   1426.97327     482.7805     390.3329   1426.97327     482.7805     390.3329
   1426.95801     485.7690     392.9803   1426.95801     485.7690     392.9803
   1426.94275     488.4194     395.8089   1426.94275     488.4194     395.8089
   1426.92749     491.3448     398.0946   1426.92749     491.3448     398.0946
   1426.91223     493.8280     400.2823   1426.91223     493.8280     400.2823
   1426.89697     497.7290     402.3433   1426.89697     497.7290     402.3433
   1426.88171     500.1218     405.4261   1426.88171     500.1218     405.4261
   1426.86646     504.0328     408.0016   1426.86646     504.0328     408.0016
   1426.85120     506.7079     411.1566   1426.85120     506.7079     411.1566
   1426.83594     509.7449     413.2573   1426.83594     509.7449     413.2573
   1426.82068     512.1705     415.4815   1426.82068     512.1705     415.4815
   1426.80542     516.2449     417.3231   1426.80542     516.2449     417.3231
   1426.79016     518.4064     420.5564   1426.79016     518.4064     420.5564
   1426.77490     520.6066     422.6629   1426.77490     520.6066     422.6629
   1426.75964     525.2411     424.4934   1426.75964     525.2411     424.4934
   1426.74438     527.8632     426.6468   1426.74438     527.8632     426.6468
   1426.72913     530.4027     429.8580   1426.72913     530.4027     429.8580
   1426.71387     534.2614     431.6897   1426.71387     534.2614     431.6897
   1426.69861     536.9293     434.4901   1426.69861     536.9293     434.4901
   1426.68335     540.1123     436.5922   1426.68335     540.1123     436.5922
   1426.66809     544.1058     438.4810   1426.66809     544.1058     438.4810
   1426.65283     547.0543     440.6429   1426.65283     547.0543     440.6429
   1426.63757     550.0474     443.9193   1426.63757     550.0474     443.9193
   1426.62231     554.2756     445.7751   1426.62231     554.2756     445.7751
   1426.60706     555.4141     448.0200   1426.60706     555.4141     448.0200
   1426.59180     559.9891     449.4218   1426.59180     559.9891     449.4218
   1426.57654     561.8683     451.7445   1426.57654     561.8683     451.7445
   1426.56128     565.3425     454.3438   1426.56128     565.3425     454.3438
   1426.54602     568.2349     455.4958   1426.54602     568.2349     455.4958
   1426.53076     572.6389     458.1380   1426.53076     572.6389     458.1380
   1426.51550     574.5259     459.3287   1426.51550     574.5259     459.3287
   1426.50024     578.3203     461.9200   1426.50024     578.3203     461.9200
   1426.48499     581.2405     464.0310   1426.48499     581.2405     464.0310
   1426.46973     584.1606     465.7999   1426.46973     584.1606     465.7999
   1426.45447     587.6020     467.3743   1426.45447     587.6020     467.3743
   1426.43921     590.5946     469.5187   1426.43921     590.5946     469.5187
   1426.42395     593.4910     471.4575   1426.42395     593.4910     471.4575
   1426.40869     596.6604     472.2615   1426.40869     596.6604     472.2615
   1426.39343     599.1150     475.0864   1426.39343     599.1150     475.0864
   1426.37817     602.2698     475.8359   1426.37817     602.2698     475.8359
   1426.36292     605.4399     478.5342   1426.36292     605.4399     478.5342
   1426.34766     608.2198     479.3713   1426.34766     608.2198     479.3713
   1426.33240     611.3835     481.9883   1426.33240     611.3835     481.9883
   1426.31714     613.8419     483.2366   1426.31714     613.8419     483.2366
   1426.30188     617.0472     485.0121   1426.30188     617.0472     485.0121
   1426.28662     619.6204     486.0172   1426.28662     619.6204     486.0172
   1426.27136     623.1998     488.2789   1426.27136     623.1998     488.2789
   1426.25610     625.5465     489.3727   1426.25610     625.5465     489.3727
   1426.24084     628.5588     490.7405   1426.24084     628.5588     490.7405
   1426.22559     630.9203     492.2186   1426.22559     630.9203     492.2186
   1426.21033     635.3383     495.0435   1426.21033     635.3383     495.0435
   1426.19507     638.2177     495.5013   1426.19507     638.2177     495.5013
   1426.17981     640.1376     496.7221   1426.17981     640.1376     496.7221
   1426.16455     643.2822     498.5663   1426.16455     643.2822     498.5663
   1426.14929     645.3666     499.4214   1426.14929     645.3666     499.4214
   1426.13403     648.9054     500.9530   1426.13403     648.9054     500.9530
   1426.11877     651.0219     502.7136   1426.11877     651.0219     502.7136
   1426.10352     653.9941     503.8611   1426.10352     653.9941     503.8611
   1426.08826     656.5178     504.6252   1426.08826     656.5178     504.6252
   1426.07300     660.1000     505.5427   1426.07300     660.1000     505.5427
   1426.05774     661.3638     507.3780   1426.05774     661.3638     507.3780
   1426.04248     664.3792     508.0612   1426.04248     664.3792     508.0612
   1426.02722     666.6795     509.9611   1426.02722     666.6795     509.9611
   1426.01196     669.3340     511.3468   1426.01196     669.3340     511.3468
   1425.99670     672.1567     511.5117   1425.99670     672.1567     511.5117
   1425.98145     674.3835     512.0145   1425.98145     674.3835     512.0145
   1425.96619     676.0557     513.1069   1425.96619     676.0557     513.1069
   1425.95093     678.7053     514.3786   1425.95093     678.7053     514.3786
   1425.93567     681.1782     515.0322   1425.93567     681.1782     515.0322
   1425.92041     683.7067     515.7429   1425.92041     683.7067     515.7429
   1425.90515     686.9016     516.9459   1425.90515     686.9016     516.9459
   1425.88989     689.2356     517.4459   1425.88989     689.2356     517.4459
   1425.87463     689.8417     518.7449   1425.87463     689.8417     518.7449
   1425.85938     692.8577     519.8875   1425.85938     692.8577     519.8875
   1425.84412     695.4818     520.3911   1425.84412     695.4818     520.3911
   1425.82886     696.8308     521.1300   1425.82886     696.8308     521.1300
   1425.81360     699.5781     522.0902   1425.81360     699.5781     522.0902
   1425.79834     701.3790     522.0379   1425.79834     701.3790     522.0379
   1425.78308     702.9887     523.5886   1425.78308     702.9887     523.5886
   1425.76782     705.8920     523.5570   1425.76782     705.8920     523.5570
   1425.75256     707.0038     524.2950   1425.75256     707.0038     524.2950
   1425.73730     709.6233     525.0715   1425.73730     709.6233     525.0715
   1425.72205     711.2720     525.8046   1425.72205     711.2720     525.8046
   1425.70679     714.0463     526.5797   1425.70679     714.0463     526.5797
   1425.69153     716.4517     526.7073   1425.69153     716.4517     526.7073
   1425.67627     716.7731     527.1682   1425.67627     716.7731     527.1682
   1425.66101     720.0034     528.0616   1425.66101     720.0034     528.0616
   1425.64575     719.9917     528.9384   1425.64575     719.9917     528.9384
   1425.63049     722.4885     529.4618   1425.63049     722.4885     529.4618
   1425.61523     723.7519     529.8571   1425.61523     723.7519     529.8571
   1425.59998     726.0638     530.9643   1425.59998     726.0638     530.9643
   1425.58472     727.1243     530.7911   1425.58472     727.1243     530.7911
   1425.56946     728.8520     530.7645   1425.56946     728.8520     530.7645
   1425.55420     730.5720     531.6719   1425.55420     730.5720     531.6719
   1425.53894     732.2791     532.0295   1425.53894     732.2791     532.0295
   1425.52368     733.0579     531.9946   1425.52368     733.0579     531.9946
   1425.50842     735.5968     531.9633   1425.50842     735.5968     531.9633
   1425.49316     737.0434     531.8148   1425.49316     737.0434     531.8148
   1425.47791     737.2959     532.7538   1425.47791     737.2959     532.7538
   1425.46265     738.6018     533.1295   1425.46265     738.6018     533.1295
   1425.44739     741.1194     533.7537   1425.44739     741.1194     533.7537
   1425.43213     741.6744     533.2316   1425.43213     741.6744     533.2316
   1425.41687     743.8135     534.1091   1425.41687     743.8135     534.1091
   1425.40161     743.5649     533.6721   1425.40161     743.5649     533.6721
   1425.38635     747.0688     534.8495   1425.38635     747.0688     534.8495
   1425.37109     746.1748     534.5036   1425.37109     746.1748     534.5036
   1425.35583     747.5430     534.7573   1425.35583     747.5430     534.7573
   1425.34058     749.3343     535.2441   1425.34058     749.3343     535.2441
   1425.32532     749.3470     534.3976   1425.32532     749.3470     534.3976
   1425.31006     752.0653     534.1405   1425.31006     752.0653     534.1405
   1425.29480     752.2420     535.5267   1425.29480     752.2420     535.5267
   1425.27954     754.6281     534.8308   1425.27954     754.6281     534.8308
   1425.26428     754.4749     535.1793   1425.26428     754.4749     535.1793
   1425.24902     755.0911     534.7727   1425.24902     755.0911     534.7727
   1425.23376     754.9098     535.2650   1425.23376     754.9098     535.2650
   1425.21851     755.9583     535.6620   1425.21851     755.9583     535.6620
   1425.20325     758.1135     534.9209   1425.20325     758.1135     534.9209
   1425.18799     758.5788     535.3561   1425.18799     758.5788     535.3561
   1425.17273     759.5853     534.5701   1425.17273     759.5853     534.5701
   1425.15747     760.8438     535.1534   1425.15747     760.8438     535.1534
   1425.14221     760.7187     534.9669   1425.14221     760.7187     534.9669
   1425.12695     761.2872     535.0827   1425.12695     761.2872     535.0827
   1425.11169     762.3709     535.0910   1425.11169     762.3709     535.0910
   1425.09644     763.7584     534.7462   1425.09644     763.7584     534.7462
   1425.08118     764.3407     534.4517   1425.08118     764.3407     534.4517
   1425.06592     764.3345     534.1618   1425.06592     764.3345     534.1618
   1425.05066     763.4785     533.0946   1425.05066     763.4785     533.0946
   1425.03540     765.7635     534.6534   1425.03540     765.7635     534.6534
   1425.02014     764.9532     533.4995   1425.02014     764.9532     533.4995
   1425.00488     766.4993     532.8428   1425.00488     766.4993     532.8428
   1424.98962     767.0054     533.7188   1424.98962     767.0054     533.7188
   1424.97437     767.0248     532.9532   1424.97437     767.0248     532.9532
   1424.95911     767.9247     532.5231   1424.95911     767.9247     532.5231
   1424.94385     765.9952     533.0606   1424.94385     765.9952     533.0606
   1424.92859     767.5834     531.7688   1424.92859     767.5834     531.7688
   1424.91333     769.7183     532.0269   1424.91333     769.7183     532.0269
   1424.89807     769.3446     531.8102   1424.89807     769.3446     531.8102
   1424.88281     769.9459     532.0500   1424.88281     769.9459     532.0500
   1424.86755     769.2440     531.1370   1424.86755     769.2440     531.1370
   1424.85229     770.2057     531.3136   1424.85229     770.2057     531.3136
   1424.83704     770.2782     530.8892   1424.83704     770.2782     530.8892
   1424.82178     769.8033     529.7043   1424.82178     769.8033     529.7043
   1424.80652     770.6985     530.6756   1424.80652     770.6985     530.6756
   1424.79126     771.1826     530.4106   1424.79126     771.1826     530.4106
   1424.77600     770.5826     529.9741   1424.77600     770.5826     529.9741
   1424.76074     771.2645     529.1086   1424.76074     771.2645     529.1086
   1424.74548     770.6207     528.9520   1424.74548     770.6207     528.9520
   1424.73022     771.6955     528.4832   1424.73022     771.6955     528.4832
   1424.71497     771.9942     527.7613   1424.71497     771.9942     527.7613
   1424.69971     771.0128     526.9349   1424.69971     771.0128     526.9349
   1424.68445     770.7241     527.3602   1424.68445     770.7241     527.3602
   1424.66919     771.5162     526.7500   1424.66919     771.5162     526.7500
   1424.65393     770.4476     526.6915   1424.65393     770.4476     526.6915
   1424.63867     771.8330     524.9854   1424.63867     771.8330     524.9854
   1424.62341     771.7289     524.7793   1424.62341     771.7289     524.7793
   1424.60815     771.1007     525.0336   1424.60815     771.1007     525.0336
   1424.59290     771.1455     524.4955   1424.59290     771.1455     524.4955
   1424.57764     770.0432     524.9824   1424.57764     770.0432     524.9824
   1424.56238     769.7134     523.3135   1424.56238     769.7134     523.3135
   1424.54712     770.2528     522.8390   1424.54712     770.2528     522.8390
   1424.53186     770.2400     523.5182   1424.53186     770.2400     523.5182
   1424.51660     769.1140     522.4564   1424.51660     769.1140     522.4564
   1424.50134     770.4347     522.1190   1424.50134     770.4347     522.1190
   1424.48608     770.3531     520.7465   1424.48608     770.3531     520.7465
   1424.47083     769.4225     521.1434   1424.47083     769.4225     521.1434
   1424.45557     769.5731     521.5168   1424.45557     769.5731     521.5168
   1424.44031     769.8458     520.1316   1424.44031     769.8458     520.1316
   1424.42505     769.8353     519.3488   1424.42505     769.8353     519.3488
   1424.40979     768.8414     518.9811   1424.40979     768.8414     518.9811
   1424.39453     769.4980     518.5321   1424.39453     769.4980     518.5321
   1424.37927     769.5987     518.2595   1424.37927     769.5987     518.2595
   1424.36401     767.8651     517.3790   1424.36401     767.8651     517.3790
   1424.34875     767.5995     517.0543   1424.34875     767.5995     517.0543
   1424.33350     767.5121     517.4564   1424.33350     767.5121     517.4564
   1424.31824     767.7146     516.0311   1424.31824     767.7146     516.0311
   1424.30298     768.4962     515.2272   1424.30298     768.4962     515.2272
   1424.28772     767.2253     514.3605   1424.28772     767.2253     514.3605
   1424.27246     766.6602     515.2892   1424.27246     766.6602     515.2892
   1424.25720     767.0892     514.1559   1424.25720     767.0892     514.1559
   1424.24194     766.3297     513.2159   1424.24194     766.3297     513.2159
   1424.22668     765.5128     513.3883   1424.22668     765.5128     513.3883
   1424.21143     765.1663     513.3075   1424.21143     765.1663     513.3075
   1424.19617     764.9358     512.3590   1424.19617     764.9358     512.3590
   1424.18091     763.2974     510.5119   1424.18091     763.2974     510.5119
   1424.16565     764.4505     510.7357   1424.16565     764.4505     510.7357
   1424.15039     763.3078     510.2513   1424.15039     763.3078     510.2513
   1424.13513     764.2272     510.2805   1424.13513     764.2272     510.2805
   1424.11987     763.8378     509.3464   1424.11987     763.8378     509.3464
   1424.10461     763.0580     508.9849   1424.10461     763.0580     508.9849
   1424.08936     763.2748     507.8503   1424.08936     763.2748     507.8503
   1424.07410     762.2890     507.0898   1424.07410     762.2890     507.0898
   1424.05884     762.7322     506.6523   1424.05884     762.7322     506.6523
   1424.04358     760.9239     506.1007   1424.04358     760.9239     506.1007
   1424.02832     760.9236     505.4380   1424.02832     760.9236     505.4380
   1424.01306     760.7075     505.9810   1424.01306     760.7075     505.9810
   1423.99780     758.9278     504.2728   1423.99780     758.9278     504.2728
   1423.98254     759.5631     504.3017   1423.98254     759.5631     504.3017
   1423.96729     759.9490     503.6034   1423.96729     759.9490     503.6034
   1423.95203     758.6472     503.1672   1423.95203     758.6472     503.1672
   1423.93677     758.6645     502.3290   1423.93677     758.6645     502.3290
   1423.92151     757.0516     501.7051   1423.92151     757.0516     501.7051
   1423.90625     757.9535     500.5094   1423.90625     757.9535     500.5094
   1423.89099     756.4763     500.9660   1423.89099     756.4763     500.9660
   1423.87573     756.9122     499.9815   1423.87573     756.9122     499.9815
   1423.86047     755.7831     499.5551   1423.86047     755.7831     499.5551
   1423.84521     756.2347     498.9531   1423.84521     756.2347     498.9531
   1423.82996     753.8666     497.6470   1423.82996     753.8666     497.6470
   1423.81470     755.2751     497.9146   1423.81470     755.2751     497.9146
   1423.79944     754.6046     496.8268   1423.79944     754.6046     496.8268
   1423.78418     754.9761     496.0913   1423.78418     754.9761     496.0913
   1423.76892     753.5389     495.7642   1423.76892     753.5389     495.7642
   1423.75366     753.2125     495.0417   1423.75366     753.2125     495.0417
   1423.73840     752.1896     493.6483   1423.73840     752.1896     493.6483
   1423.72314     752.0056     494.1261   1423.72314     752.0056     494.1261
   1423.70789     751.5045     492.9556   1423.70789     751.5045     492.9556
   1423.69263     750.7845     492.0021   1423.69263     750.7845     492.0021
   1423.67737     751.2795     491.7221   1423.67737     751.2795     491.7221
   1423.66211     750.4969     492.3025   1423.66211     750.4969     492.3025
   1423.64685     750.3115     489.7434   1423.64685     750.3115     489.7434
   1423.63159     750.6667     488.9710   1423.63159     750.6667     488.9710
   1423.61633     748.7766     489.3261   1423.61633     748.7766     489.3261
   1423.60107     749.2532     488.5523   1423.60107     749.2532     488.5523
   1423.58582     747.5031     488.2407   1423.58582     747.5031     488.2407
   1423.57056     748.4464     486.9807   1423.57056     748.4464     486.9807
   1423.55530     746.8795     486.6588   1423.55530     746.8795     486.6588
   1423.54004     747.3800     484.9963   1423.54004     747.3800     484.9963
   1423.52478     747.1141     484.9777   1423.52478     747.1141     484.9777
   1423.50952     746.8633     484.8575   1423.50952     746.8633     484.8575
   1423.49426     746.2032     484.1443   1423.49426     746.2032     484.1443
   1423.47900     745.2963     483.7336   1423.47900     745.2963     483.7336
   1423.46375     745.5576     482.0134   1423.46375     745.5576     482.0134
   1423.44849     745.0684     481.5396   1423.44849     745.0684     481.5396
   1423.43323     745.4247     481.5170   1423.43323     745.4247     481.5170
   1423.41797     743.9870     480.5951   1423.41797     743.9870     480.5951
   1423.40271     743.0497     480.5519   1423.40271     743.0497     480.5519
   1423.38745     743.4673     479.7986   1423.38745     743.4673     479.7986
   1423.37219     743.8834     479.2134   1423.37219     743.8834     479.2134
   1423.35693     742.7609     478.0273   1423.35693     742.7609     478.0273
   1423.34167     743.5304     477.5359   1423.34167     743.5304     477.5359
   1423.32642     742.4294     476.8599   1423.32642     742.4294     476.8599
   1423.31116     741.0497     476.2350   1423.31116     741.0497     476.2350
   1423.29590     742.1891     475.9262   1423.29590     742.1891     475.9262
   1423.28064     741.3359     475.0378   1423.28064     741.3359     475.0378
   1423.26538     741.2618     474.3486   1423.26538     741.2618     474.3486
   1423.25012     739.8345     472.9445   1423.25012     739.8345     472.9445
   1423.23486     739.5593     472.3832   1423.23486     739.5593     472.3832
   1423.21960     739.8727     471.6306   1423.21960     739.8727     471.6306
   1423.20435     739.5936     471.5004   1423.20435     739.5936     471.5004
   1423.18909     740.0241     470.8839   1423.18909     740.0241     470.8839
   1423.17383     738.4485     469.3186   1423.17383     738.4485     469.3186
   1423.15857     738.4702     468.8917   1423.15857     738.4702     468.8917
   1423.14331     737.5358     468.3093   1423.14331     737.5358     468.3093
   1423.12805     737.6295     468.2472   1423.12805     737.6295     468.2472
   1423.11279     738.1024     467.3349   1423.11279     738.1024     467.3349
   1423.09753     736.1909     465.9474   1423.09753     736.1909     465.9474
   1423.08228     736.3521     465.8943   1423.08228     736.3521     465.8943
   1423.06702     736.1634     465.2326   1423.06702     736.1634     465.2326
   1423.05176     736.2542     464.6770   1423.05176     736.2542     464.6770
   1423.03650     736.3746     463.4061   1423.03650     736.3746     463.4061
   1423.02124     736.3870     463.4914   1423.02124     736.3870     463.4914
   1423.00598     734.7284     462.3545   1423.00598     734.7284     462.3545
   1422.99072     734.8412     461.2480   1422.99072     734.8412     461.2480
   1422.97546     735.1584     460.8645   1422.97546     735.1584     460.8645
   1422.96021     735.1661     460.1566   1422.96021     735.1661     460.1566
   1422.94495     734.5782     459.4318   1422.94495     734.5782     459.4318
   1422.92969     734.7085     459.4168   1422.92969     734.7085     459.4168
   1422.91443     732.9655     457.5441   1422.91443     732.9655     457.5441
   1422.89917     733.6022     456.6860   1422.89917     733.6022     456.6860
   1422.88391     733.9216     456.4615   1422.88391     733.9216     456.4615
   1422.86865     733.2241     456.3987   1422.86865     733.2241     456.3987
   1422.85339     732.7342     455.2663   1422.85339     732.7342     455.2663
   1422.83813     732.1421     453.5898   1422.83813     732.1421     453.5898
   1422.82288     732.4509     454.3571   1422.82288     732.4509     454.3571
   1422.80762     732.1973     452.1135   1422.80762     732.1973     452.1135
   1422.79236     732.5857     452.5211   1422.79236     732.5857     452.5211
   1422.77710     731.6437     451.5241   1422.77710     731.6437     451.5241
   1422.76184     731.5346     450.6181   1422.76184     731.5346     450.6181
   1422.74658     732.4822     450.9968   1422.74658     732.4822     450.9968
   1422.73132     731.1866     449.2943   1422.73132     731.1866     449.2943
   1422.71606     731.8314     448.9681   1422.71606     731.8314     448.9681
   1422.70081     730.7836     447.7765   1422.70081     730.7836     447.7765
   1422.68555     731.2227     447.3329   1422.68555     731.2227     447.3329
   1422.67029     730.2347     446.6278   1422.67029     730.2347     446.6278
   1422.65503     729.6113     445.8917   1422.65503     729.6113     445.8917
   1422.63977     729.4073     445.1882   1422.63977     729.4073     445.1882
   1422.62451     729.7897     444.5930   1422.62451     729.7897     444.5930
   1422.60925     729.2578     443.5949   1422.60925     729.2578     443.5949
   1422.59399     729.0689     443.2019   1422.59399     729.0689     443.2019
   1422.57874     729.1133     442.7211   1422.57874     729.1133     442.7211
   1422.56348     729.9969     441.4367   1422.56348     729.9969     441.4367
   1422.54822     729.3622     441.8952   1422.54822     729.3622     441.8952
   1422.53296     729.3284     440.3448   1422.53296     729.3284     440.3448
   1422.51770     728.3571     439.1088   1422.51770     728.3571     439.1088
   1422.50244     728.5224     438.5116   1422.50244     728.5224     438.5116
   1422.48718     728.0389     438.2343   1422.48718     728.0389     438.2343
   1422.47192     727.4348     437.3884   1422.47192     727.4348     437.3884
   1422.45667     727.2905     436.1075   1422.45667     727.2905     436.1075
   1422.44141     728.7823     435.4285   1422.44141     728.7823     435.4285
   1422.42615     728.5814     435.4992   1422.42615     728.5814     435.4992
   1422.41089     727.6501     433.7563   1422.41089     727.6501     433.7563
   1422.39563     727.8676     433.5937   1422.39563     727.8676     433.5937
   1422.38037     728.3396     433.1096   1422.38037     728.3396     433.1096
   1422.36511     727.1797     432.5165   1422.36511     727.1797     432.5165
   1422.34985     727.2222     431.5113   1422.34985     727.2222     431.5113
   1422.33459     728.5312     430.0820   1422.33459     728.5312     430.0820
   1422.31934     727.9164     429.8365   1422.31934     727.9164     429.8365
   1422.30408     726.9830     428.7215   1422.30408     726.9830     428.7215
   1422.28882     726.9971     428.5021   1422.28882     726.9971     428.5021
   1422.27356     727.6419     427.4630   1422.27356     727.6419     427.4630
   1422.25830     726.7911     427.0693   1422.25830     726.7911     427.0693
   1422.24304     725.9801     426.5003   1422.24304     725.9801     426.5003
   1422.22778     727.2991     425.9464   1422.22778     727.2991     425.9464
   1422.21252     727.1503     424.9684   1422.21252     727.1503     424.9684
   1422.19727     726.4496     424.5742   1422.19727     726.4496     424.5742
   1422.18201     725.3148     423.6364   1422.18201     725.3148     423.6364
   1422.16675     726.0795     423.1425   1422.16675     726.0795     423.1425
   1422.15149     725.6448     421.6686   1422.15149     725.6448     421.6686
   1422.13623     726.0331     421.5112   1422.13623     726.0331     421.5112
   1422.12097     725.6948     420.6982   1422.12097     725.6948     420.6982
   1422.10571     725.8186     420.2643   1422.10571     725.8186     420.2643
   1422.09045     726.1392     419.3467   1422.09045     726.1392     419.3467
   1422.07520     726.1903     418.6061   1422.07520     726.1903     418.6061
   1422.05994     725.8554     417.8304   1422.05994     725.8554     417.8304
   1422.04468     725.6513     417.8707   1422.04468     725.6513     417.8707
   1422.02942     725.1298     415.3808   1422.02942     725.1298     415.3808
   1422.01416     725.3148     415.8719   1422.01416     725.3148     415.8719
   1421.99890     725.5923     415.2464   1421.99890     725.5923     415.2464
   1421.98364     725.0182     414.2090   1421.98364     725.0182     414.2090
   1421.96838     726.6503     413.6596   1421.96838     726.6503     413.6596
   1421.95312     725.2318     412.8878   1421.95312     725.2318     412.8878
   1421.93787     725.7806     411.2986   1421.93787     725.7806     411.2986
   1421.92261     725.8187     411.3322   1421.92261     725.8187     411.3322
   1421.90735     725.0789     410.0416   1421.90735     725.0789     410.0416
   1421.89209     725.3251     410.2150   1421.89209     725.3251     410.2150
   1421.87683     724.4026     409.1247   1421.87683     724.4026     409.1247
   1421.86157     725.4093     407.8887   1421.86157     725.4093     407.8887
   1421.84631     724.3560     408.0245   1421.84631     724.3560     408.0245
   1421.83105     724.5307     407.1700   1421.83105     724.5307     407.1700
   1421.81580     725.0081     406.1931   1421.81580     725.0081     406.1931
   1421.80054     724.2116     405.7054   1421.80054     724.2116     405.7054
   1421.78528     725.3438     405.5363   1421.78528     725.3438     405.5363
   1421.77002     725.0037     404.0804   1421.77002     725.0037     404.0804
   1421.75476     723.4362     403.4656   1421.75476     723.4362     403.4656
   1421.73950     723.7228     402.3470   1421.73950     723.7228     402.3470
   1421.72424     723.9352     402.1861   1421.72424     723.9352     402.1861
   1421.70898     724.3528     401.0549   1421.70898     724.3528     401.0549
   1421.69373     722.9578     401.0029   1421.69373     722.9578     401.0029
   1421.67847     725.3972     399.8659   1421.67847     725.3972     399.8659
   1421.66321     724.3054     399.7271   1421.66321     724.3054     399.7271
   1421.64795     723.6670     398.6078   1421.64795     723.6670     398.6078
   1421.63269     723.0396     398.2285   1421.63269     723.0396     398.2285
   1421.61743     722.7650     397.6003   1421.61743     722.7650     397.6003
   1421.60217     723.2933     396.8115   1421.60217     723.2933     396.8115
   1421.58691     722.8693     395.9888   1421.58691     722.8693     395.9888
   1421.57166     723.3868     394.1510   1421.57166     723.3868     394.1510
   1421.55640     722.5062     394.3133   1421.55640     722.5062     394.3133
   1421.54114     722.5260     393.9073   1421.54114     722.5260     393.9073
   1421.52588     722.8488     393.2335   1421.52588     722.8488     393.2335
   1421.51062     722.6267     392.0782   1421.51062     722.6267     392.0782
   1421.49536     722.1267     391.4740   1421.49536     722.1267     391.4740
   1421.48010     723.2269     390.5470   1421.48010     723.2269     390.5470
   1421.46484     722.4282     390.5300   1421.46484     722.4282     390.5300
   1421.44958     722.5532     389.5750   1421.44958     722.5532     389.5750
   1421.43433     721.0821     388.3481   1421.43433     721.0821     388.3481
   1421.41907     721.1718     388.6739   1421.41907     721.1718     388.6739
   1421.40381     722.0667     387.7091   1421.40381     722.0667     387.7091
   1421.38855     721.9659     387.0430   1421.38855     721.9659     387.0430
   1421.37329     721.7542     386.0366   1421.37329     721.7542     386.0366
   1421.35803     720.7039     385.5270   1421.35803     720.7039     385.5270
   1421.34277     721.7549     384.8695   1421.34277     721.7549     384.8695
   1421.32751     720.1455     384.2856   1421.32751     720.1455     384.2856
   1421.31226     721.5056     384.0999   1421.31226     721.5056     384.0999
   1421.29700     721.1133     382.8666   1421.29700     721.1133     382.8666
   1421.28174     721.1844     382.1523   1421.28174     721.1844     382.1523
   1421.26648     719.7203     381.4861   1421.26648     719.7203     381.4861
   1421.25122     719.4227     380.6555   1421.25122     719.4227     380.6555
   1421.23596     719.2830     379.8666   1421.23596     719.2830     379.8666
   1421.22070     718.9824     378.8952   1421.22070     718.9824     378.8952
   1421.20544     719.2021     378.3668   1421.20544     719.2021     378.3668
   1421.19019     720.1329     377.9771   1421.19019     720.1329     377.9771
   1421.17493     718.4299     376.8479   1421.17493     718.4299     376.8479
   1421.15967     718.1071     376.6404   1421.15967     718.1071     376.6404
   1421.14441     718.0426     375.8977   1421.14441     718.0426     375.8977
   1421.12915     718.5158     374.9530   1421.12915     718.5158     374.9530
   1421.11389     719.1874     374.2487   1421.11389     719.1874     374.2487
   1421.09863     719.3447     374.0608   1421.09863     719.3447     374.0608
   1421.08337     717.9416     372.8250   1421.08337     717.9416     372.8250
   1421.06812     717.9083     372.7437   1421.06812     717.9083     372.7437
   1421.05286     717.6850     371.2971   1421.05286     717.6850     371.2971
   1421.03760     718.4330     371.2892   1421.03760     718.4330     371.2892
   1421.02234     718.3554     370.4904   1421.02234     718.3554     370.4904
   1421.00708     718.2963     370.1496   1421.00708     718.2963     370.1496
   1420.99182     716.2590     369.0084   1420.99182     716.2590     369.0084
   1420.97656     717.6830     368.0188   1420.97656     717.6830     368.0188
   1420.96130     717.1037     368.2399   1420.96130     717.1037     368.2399
   1420.94604     717.3781     367.3074   1420.94604     717.3781     367.3074
   1420.93079     716.4403     367.3889   1420.93079     716.4403     367.3889
   1420.91553     717.7723     365.7755   1420.91553     717.7723     365.7755
   1420.90027     717.2526     365.5740   1420.90027     717.2526     365.5740
   1420.88501     718.1690     364.8483   1420.88501     718.1690     364.8483
   1420.86975     717.8802     364.6587   1420.86975     717.8802     364.6587
   1420.85449     717.7355     364.6112   1420.85449     717.7355     364.6112
   1420.83923     716.9207     363.1730   1420.83923     716.9207     363.1730
   1420.82397     718.1490     363.1961   1420.82397     718.1490     363.1961
   1420.80872     719.4625     362.8409   1420.80872     719.4625     362.8409
   1420.79346     719.3294     362.9064   1420.79346     719.3294     362.9064
   1420.77820     720.7842     362.5006   1420.77820     720.7842     362.5006
   1420.76294     721.4268     362.0188   1420.76294     721.4268     362.0188
   1420.74768     721.1685     361.9677   1420.74768     721.1685     361.9677
   1420.73242     723.8178     361.9049   1420.73242     723.8178     361.9049
   1420.71716     721.8997     361.2044   1420.71716     721.8997     361.2044
   1420.70190     721.7883     360.7901   1420.70190     721.7883     360.7901
   1420.68665     723.2340     360.4527   1420.68665     723.2340     360.4527
   1420.67139     723.2626     359.8441   1420.67139     723.2626     359.8441
   1420.65613     722.9364     358.8907   1420.65613     722.9364     358.8907
   1420.64087     724.4712     359.7174   1420.64087     724.4712     359.7174
   1420.62561     725.3969     359.9439   1420.62561     725.3969     359.9439
   1420.61035     730.0483     361.0569   1420.61035     730.0483     361.0569
   1420.59509     736.7342     363.3278   1420.59509     736.7342     363.3278
   1420.57983     748.5047     368.7579   1420.57983     748.5047     368.7579
   1420.56458     764.3885     375.6345   1420.56458     764.3885     375.6345
   1420.54932     791.1081     387.8460   1420.54932     791.1081     387.8460
   1420.53406     825.0508     404.4119   1420.53406     825.0508     404.4119
   1420.51880     876.5853     428.3181   1420.51880     876.5853     428.3181
   1420.50354     914.2891     445.2130   1420.50354     914.2891     445.2130
   1420.48828     969.8142     471.4227   1420.48828     969.8142     471.4227
   1420.47302    1237.0283     597.9684   1420.47302    1237.0283     597.9684
   1420.45776    1662.0703     800.3868   1420.45776    1662.0703     800.3868
   1420.44250    1851.8917     888.7603   1420.44250    1851.8917     888.7603
   1420.42725    2132.6206    1021.4984   1420.42725    2132.6206    1021.4984
   1420.41199    2498.2437    1191.9677   1420.41199    2498.2437    1191.9677
   1420.39673    2582.1758    1230.1119   1420.39673    2582.1758    1230.1119
   1420.38147    2595.4084    1236.0740   1420.38147    2595.4084    1236.0740
   1420.36621    2449.5286    1166.6088   1420.36621    2449.5286    1166.6088
   1420.35095    2223.6758    1061.9764   1420.35095    2223.6758    1061.9764
   1420.33569    2002.7944     955.3622   1420.33569    2002.7944     955.3622
   1420.32043    1889.3051     899.1787   1420.32043    1889.3051     899.1787
   1420.30518    1807.4401     861.8487   1420.30518    1807.4401     861.8487
   1420.28992    1444.3478     687.5547   1420.28992    1444.3478     687.5547
   1420.27466    1049.7013     501.3139   1420.27466    1049.7013     501.3139
   1420.25940     878.0140     420.1004   1420.25940     878.0140     420.1004
   1420.24414     804.2360     385.0712   1420.24414     804.2360     385.0712
   1420.22888     763.7780     365.1091   1420.22888     763.7780     365.1091
   1420.21362     739.1717     352.8211   1420.21362     739.1717     352.8211
   1420.19836     727.0950     347.0015   1420.19836     727.0950     347.0015
   1420.18311     719.2310     342.7172   1420.18311     719.2310     342.7172
   1420.16785     716.2659     340.3994   1420.16785     716.2659     340.3994
   1420.15259     712.5759     339.2975   1420.15259     712.5759     339.2975
   1420.13733     710.9100     337.5449   1420.13733     710.9100     337.5449
   1420.12207     709.3516     336.2292   1420.12207     709.3516     336.2292
   1420.10681     708.5402     335.0508   1420.10681     708.5402     335.0508
   1420.09155     706.5707     333.5656   1420.09155     706.5707     333.5656
   1420.07629     705.6748     332.5358   1420.07629     705.6748     332.5358
   1420.06104     704.7903     331.9964   1420.06104     704.7903     331.9964
   1420.04578     703.5682     331.7220   1420.04578     703.5682     331.7220
   1420.03052     703.9009     330.8069   1420.03052     703.9009     330.8069
   1420.01526     704.9683     331.3321   1420.01526     704.9683     331.3321
   1420.00000     705.0201     331.8686   1420.00000     705.0201     331.8686
   1419.98474     705.0721     332.4050   1419.98474     705.0721     332.4050
   1419.96948     705.8031     330.1138   1419.96948     705.8031     330.1138
   1419.95422     702.9583     328.3704   1419.95422     702.9583     328.3704
   1419.93896     702.3152     327.8428   1419.93896     702.3152     327.8428
   1419.92371     702.0187     326.6036   1419.92371     702.0187     326.6036
   1419.90845     702.4501     326.7568   1419.90845     702.4501     326.7568
   1419.89319     702.3749     326.3454   1419.89319     702.3749     326.3454
   1419.87793     701.3787     326.0482   1419.87793     701.3787     326.0482
   1419.86267     701.5284     325.4435   1419.86267     701.5284     325.4435
   1419.84741     702.2670     324.9021   1419.84741     702.2670     324.9021
   1419.83215     701.0068     324.3260   1419.83215     701.0068     324.3260
   1419.81689     701.2465     323.8029   1419.81689     701.2465     323.8029
   1419.80164     700.7370     323.6183   1419.80164     700.7370     323.6183
   1419.78638     702.5229     323.6016   1419.78638     702.5229     323.6016
   1419.77112     701.5722     323.0690   1419.77112     701.5722     323.0690
   1419.75586     701.5972     322.5685   1419.75586     701.5972     322.5685
   1419.74060     701.3040     322.1843   1419.74060     701.3040     322.1843
   1419.72534     701.1736     321.4054   1419.72534     701.1736     321.4054
   1419.71008     701.3819     321.2405   1419.71008     701.3819     321.2405
   1419.69482     701.7002     320.7829   1419.69482     701.7002     320.7829
   1419.67957     701.4631     320.1364   1419.67957     701.4631     320.1364
   1419.66431     700.5657     320.1929   1419.66431     700.5657     320.1929
   1419.64905     701.6704     319.9529   1419.64905     701.6704     319.9529
   1419.63379     701.1389     319.4933   1419.63379     701.1389     319.4933
   1419.61853     701.6992     319.5114   1419.61853     701.6992     319.5114
   1419.60327     701.8004     318.6733   1419.60327     701.8004     318.6733
   1419.58801     702.2565     318.6611   1419.58801     702.2565     318.6611
   1419.57275     702.8030     318.2254   1419.57275     702.8030     318.2254
   1419.55750     702.7262     318.2807   1419.55750     702.7262     318.2807
   1419.54224     702.1436     317.7733   1419.54224     702.1436     317.7733
   1419.52698     702.6326     317.5616   1419.52698     702.6326     317.5616
   1419.51172     701.2392     317.3764   1419.51172     701.2392     317.3764
   1419.49646     701.8054     317.2321   1419.49646     701.8054     317.2321
   1419.48120     702.3552     316.8926   1419.48120     702.3552     316.8926
   1419.46594     704.2788     316.6980   1419.46594     704.2788     316.6980
   1419.45068     702.3455     316.3603   1419.45068     702.3455     316.3603
   1419.43542     703.1370     316.2901   1419.43542     703.1370     316.2901
   1419.42017     703.7953     316.0809   1419.42017     703.7953     316.0809
   1419.40491     704.1671     316.0292   1419.40491     704.1671     316.0292
   1419.38965     704.8118     315.6698   1419.38965     704.8118     315.6698
   1419.37439     704.0040     315.0499   1419.37439     704.0040     315.0499
   1419.35913     705.0270     314.9834   1419.35913     705.0270     314.9834
   1419.34387     704.4517     314.7926   1419.34387     704.4517     314.7926
   1419.32861     704.3831     314.7293   1419.32861     704.3831     314.7293
   1419.31335     704.6143     314.2462   1419.31335     704.6143     314.2462
   1419.29810     705.0309     314.6221   1419.29810     705.0309     314.6221
   1419.28284     704.3835     314.4319   1419.28284     704.3835     314.4319
   1419.26758     707.2788     314.2642   1419.26758     707.2788     314.2642
   1419.25232     705.6535     313.8745   1419.25232     705.6535     313.8745
   1419.23706     706.2405     313.7750   1419.23706     706.2405     313.7750
   1419.22180     705.9646     313.9285   1419.22180     705.9646     313.9285
   1419.20654     706.6215     314.0899   1419.20654     706.6215     314.0899
   1419.19128     705.7559     313.4957   1419.19128     705.7559     313.4957
   1419.17603     706.5443     313.5237   1419.17603     706.5443     313.5237
   1419.16077     707.1024     313.8470   1419.16077     707.1024     313.8470
   1419.14551     707.2868     313.4816   1419.14551     707.2868     313.4816
   1419.13025     707.0560     312.9147   1419.13025     707.0560     312.9147
   1419.11499     708.5522     313.0473   1419.11499     708.5522     313.0473
   1419.09973     708.9335     313.0060   1419.09973     708.9335     313.0060
   1419.08447     708.7603     312.7140   1419.08447     708.7603     312.7140
   1419.06921     707.9708     312.8106   1419.06921     707.9708     312.8106
   1419.05396     710.6763     312.8213   1419.05396     710.6763     312.8213
   1419.03870     709.7145     312.8394   1419.03870     709.7145     312.8394
   1419.02344     710.2394     312.7245   1419.02344     710.2394     312.7245
   1419.00818     710.7454     312.8581   1419.00818     710.7454     312.8581
   1418.99292     710.0771     313.0449   1418.99292     710.0771     313.0449
   1418.97766     710.7481     312.5907   1418.97766     710.7481     312.5907
   1418.96240     711.4960     313.0346   1418.96240     711.4960     313.0346
   1418.94714     711.3566     313.2524   1418.94714     711.3566     313.2524
   1418.93188     711.4068     312.9302   1418.93188     711.4068     312.9302
   1418.91663     713.1309     312.6859   1418.91663     713.1309     312.6859
   1418.90137     712.1539     313.2866   1418.90137     712.1539     313.2866
   1418.88611     713.7113     312.8719   1418.88611     713.7113     312.8719
   1418.87085     713.1544     313.1634   1418.87085     713.1544     313.1634
   1418.85559     714.2596     313.0092   1418.85559     714.2596     313.0092
   1418.84033     714.0176     312.9687   1418.84033     714.0176     312.9687
   1418.82507     714.4108     313.4358   1418.82507     714.4108     313.4358
   1418.80981     715.4679     313.4155   1418.80981     715.4679     313.4155
   1418.79456     715.8183     313.6153   1418.79456     715.8183     313.6153
   1418.77930     715.4301     313.3175   1418.77930     715.4301     313.3175
   1418.76404     716.4163     313.9481   1418.76404     716.4163     313.9481
   1418.74878     717.3192     313.7967   1418.74878     717.3192     313.7967
   1418.73352     717.3402     314.3244   1418.73352     717.3402     314.3244
   1418.71826     718.2437     314.0534   1418.71826     718.2437     314.0534
   1418.70300     717.8574     314.2560   1418.70300     717.8574     314.2560
   1418.68774     717.9813     314.3476   1418.68774     717.9813     314.3476
   1418.67249     718.2627     314.4577   1418.67249     718.2627     314.4577
   1418.65723     719.6126     314.9630   1418.65723     719.6126     314.9630
   1418.64197     720.4703     315.1163   1418.64197     720.4703     315.1163
   1418.62671     721.2828     315.6940   1418.62671     721.2828     315.6940
   1418.61145     720.8545     315.8643   1418.61145     720.8545     315.8643
   1418.59619     721.6966     315.7977   1418.59619     721.6966     315.7977
   1418.58093     722.0977     316.2796   1418.58093     722.0977     316.2796
   1418.56567     722.8755     315.7584   1418.56567     722.8755     315.7584
   1418.55042     723.1174     315.9234   1418.55042     723.1174     315.9234
   1418.53516     722.4920     316.4006   1418.53516     722.4920     316.4006
   1418.51990     723.7133     316.8574   1418.51990     723.7133     316.8574
   1418.50464     724.3715     317.0023   1418.50464     724.3715     317.0023
   1418.48938     724.7781     317.5832   1418.48938     724.7781     317.5832
   1418.47412     726.9980     317.6876   1418.47412     726.9980     317.6876
   1418.45886     726.5178     318.1893   1418.45886     726.5178     318.1893
   1418.44360     725.7854     318.1736   1418.44360     725.7854     318.1736
   1418.42834     728.0596     318.1242   1418.42834     728.0596     318.1242
   1418.41309     728.6636     318.8626   1418.41309     728.6636     318.8626
   1418.39783     728.5217     318.8476   1418.39783     728.5217     318.8476
   1418.38257     729.3440     319.4395   1418.38257     729.3440     319.4395
   1418.36731     729.2618     319.9285   1418.36731     729.2618     319.9285
   1418.35205     730.3316     319.8975   1418.35205     730.3316     319.8975
   1418.33679     731.8698     320.8452   1418.33679     731.8698     320.8452
   1418.32153     731.3716     320.4667   1418.32153     731.3716     320.4667
   1418.30627     732.5272     321.3165   1418.30627     732.5272     321.3165
   1418.29102     734.2980     321.7889   1418.29102     734.2980     321.7889
   1418.27576     733.5577     321.9880   1418.27576     733.5577     321.9880
   1418.26050     734.9112     322.1629   1418.26050     734.9112     322.1629
   1418.24524     735.2080     322.5143   1418.24524     735.2080     322.5143
   1418.22998     735.9359     323.1378   1418.22998     735.9359     323.1378
   1418.21472     736.3647     323.5964   1418.21472     736.3647     323.5964
   1418.19946     736.6063     324.1959   1418.19946     736.6063     324.1959
   1418.18420     736.7720     324.1835   1418.18420     736.7720     324.1835
   1418.16895     738.6146     325.4500   1418.16895     738.6146     325.4500
   1418.15369     737.8012     325.7303   1418.15369     737.8012     325.7303
   1418.13843     738.2525     326.1508   1418.13843     738.2525     326.1508
   1418.12317     739.6266     326.0856   1418.12317     739.6266     326.0856
   1418.10791     740.4086     326.7862   1418.10791     740.4086     326.7862
   1418.09265     740.7804     326.7166   1418.09265     740.7804     326.7166
   1418.07739     741.2217     327.3468   1418.07739     741.2217     327.3468
   1418.06213     742.1791     327.8881   1418.06213     742.1791     327.8881
   1418.04688     743.4662     328.3213   1418.04688     743.4662     328.3213
   1418.03162     744.0543     329.3959   1418.03162     744.0543     329.3959
   1418.01636     744.3575     329.3804   1418.01636     744.3575     329.3804
   1418.00110     745.6642     330.7029   1418.00110     745.6642     330.7029
   1417.98584     747.0126     330.6973   1417.98584     747.0126     330.6973
   1417.97058     745.7186     330.9536   1417.97058     745.7186     330.9536
   1417.95532     747.1201     331.8393   1417.95532     747.1201     331.8393
   1417.94006     746.8854     332.6551   1417.94006     746.8854     332.6551
   1417.92480     748.7097     332.4966   1417.92480     748.7097     332.4966
   1417.90955     749.1618     333.7175   1417.90955     749.1618     333.7175
   1417.89429     750.5559     333.9704   1417.89429     750.5559     333.9704
   1417.87903     751.8859     334.8450   1417.87903     751.8859     334.8450
   1417.86377     752.0362     335.1815   1417.86377     752.0362     335.1815
   1417.84851     752.8295     336.7411   1417.84851     752.8295     336.7411
   1417.83325     753.0693     336.7603   1417.83325     753.0693     336.7603
   1417.81799     754.0025     337.4073   1417.81799     754.0025     337.4073
   1417.80273     754.9560     337.9330   1417.80273     754.9560     337.9330
   1417.78748     754.4124     338.1474   1417.78748     754.4124     338.1474
   1417.77222     756.5193     338.7018   1417.77222     756.5193     338.7018
   1417.75696     756.6098     339.6624   1417.75696     756.6098     339.6624
   1417.74170     756.5795     339.9107   1417.74170     756.5795     339.9107
   1417.72644     757.7039     341.1354   1417.72644     757.7039     341.1354
   1417.71118     757.6774     341.7606   1417.71118     757.6774     341.7606
   1417.69592     758.6256     342.2722   1417.69592     758.6256     342.2722
   1417.68066     759.5417     343.0232   1417.68066     759.5417     343.0232
   1417.66541     760.2444     343.3346   1417.66541     760.2444     343.3346
   1417.65015     760.6752     344.3815   1417.65015     760.6752     344.3815
   1417.63489     762.2200     344.6442   1417.63489     762.2200     344.6442
   1417.61963     763.7983     345.9053   1417.61963     763.7983     345.9053
   1417.60437     762.5110     346.1976   1417.60437     762.5110     346.1976
   1417.58911     764.9600     346.9030   1417.58911     764.9600     346.9030
   1417.57385     764.7385     348.0392   1417.57385     764.7385     348.0392
   1417.55859     763.9805     348.3720   1417.55859     763.9805     348.3720
   1417.54333     765.4137     348.9416   1417.54333     765.4137     348.9416
   1417.52808     766.0797     350.0637   1417.52808     766.0797     350.0637
   1417.51282     767.6376     350.8746   1417.51282     767.6376     350.8746
   1417.49756     767.6097     351.3742   1417.49756     767.6097     351.3742
   1417.48230     768.8922     351.8277   1417.48230     768.8922     351.8277
   1417.46704     767.6259     352.5205   1417.46704     767.6259     352.5205
   1417.45178     770.2484     353.7436   1417.45178     770.2484     353.7436
   1417.43652     770.5287     354.1051   1417.43652     770.5287     354.1051
   1417.42126     771.3701     355.0106   1417.42126     771.3701     355.0106
   1417.40601     770.9200     356.4781   1417.40601     770.9200     356.4781
   1417.39075     771.9873     355.7667   1417.39075     771.9873     355.7667
   1417.37549     772.7364     357.6808   1417.37549     772.7364     357.6808
   1417.36023     773.4410     357.7664   1417.36023     773.4410     357.7664
   1417.34497     774.4937     358.7802   1417.34497     774.4937     358.7802
   1417.32971     773.7352     359.8533   1417.32971     773.7352     359.8533
   1417.31445     775.8917     360.9153   1417.31445     775.8917     360.9153
   1417.29919     775.1044     361.5887   1417.29919     775.1044     361.5887
   1417.28394     776.6960     362.2143   1417.28394     776.6960     362.2143
   1417.26868     777.6858     363.0296   1417.26868     777.6858     363.0296
   1417.25342     776.5890     363.6985   1417.25342     776.5890     363.6985
   1417.23816     779.0979     364.4946   1417.23816     779.0979     364.4946
   1417.22290     779.9867     365.2895   1417.22290     779.9867     365.2895
   1417.20764     778.5824     365.7596   1417.20764     778.5824     365.7596
   1417.19238     779.6755     367.0665   1417.19238     779.6755     367.0665
   1417.17712     778.8544     368.2227   1417.17712     778.8544     368.2227
   1417.16187     780.2015     368.3186   1417.16187     780.2015     368.3186
   1417.14661     782.0917     369.5481   1417.14661     782.0917     369.5481
   1417.13135     781.3181     370.4125   1417.13135     781.3181     370.4125
   1417.11609     782.5627     370.9846   1417.11609     782.5627     370.9846
   1417.10083     782.5765     371.7932   1417.10083     782.5765     371.7932
   1417.08557     782.4389     372.2710   1417.08557     782.4389     372.2710
   1417.07031     782.9811     372.7747   1417.07031     782.9811     372.7747
   1417.05505     784.0833     373.1800   1417.05505     784.0833     373.1800
   1417.03979     784.5261     374.8443   1417.03979     784.5261     374.8443
   1417.02454     786.8411     375.4599   1417.02454     786.8411     375.4599
   1417.00928     785.7877     376.3262   1417.00928     785.7877     376.3262
   1416.99402     785.4404     377.3024   1416.99402     785.4404     377.3024
   1416.97876     786.5397     377.7034   1416.97876     786.5397     377.7034
   1416.96350     787.6226     378.5237   1416.96350     787.6226     378.5237
   1416.94824     787.6096     379.6750   1416.94824     787.6096     379.6750
   1416.93298     789.0664     379.9095   1416.93298     789.0664     379.9095
   1416.91772     788.0323     381.1967   1416.91772     788.0323     381.1967
   1416.90247     789.9141     381.4409   1416.90247     789.9141     381.4409
   1416.88721     788.2672     382.1108   1416.88721     788.2672     382.1108
   1416.87195     788.8191     383.0143   1416.87195     788.8191     383.0143
   1416.85669     789.9143     383.7674   1416.85669     789.9143     383.7674
   1416.84143     788.5294     384.6432   1416.84143     788.5294     384.6432
   1416.82617     790.3267     385.7681   1416.82617     790.3267     385.7681
   1416.81091     790.7465     386.0645   1416.81091     790.7465     386.0645
   1416.79565     789.9077     386.9331   1416.79565     789.9077     386.9331
   1416.78040     792.0050     387.4362   1416.78040     792.0050     387.4362
   1416.76514     791.3734     388.0330   1416.76514     791.3734     388.0330
   1416.74988     791.2035     389.0129   1416.74988     791.2035     389.0129
   1416.73462     792.4744     389.3770   1416.73462     792.4744     389.3770
   1416.71936     791.9677     390.6019   1416.71936     791.9677     390.6019
   1416.70410     791.3857     390.0301   1416.70410     791.3857     390.0301
   1416.68884     792.3399     391.4810   1416.68884     792.3399     391.4810
   1416.67358     793.4837     391.7793   1416.67358     793.4837     391.7793
   1416.65833     792.9814     392.2637   1416.65833     792.9814     392.2637
   1416.64307     793.6777     392.8939   1416.64307     793.6777     392.8939
   1416.62781     792.1371     394.1185   1416.62781     792.1371     394.1185
   1416.61255     793.3303     394.3883   1416.61255     793.3303     394.3883
   1416.59729     794.5611     395.4279   1416.59729     794.5611     395.4279
   1416.58203     794.2910     395.6680   1416.58203     794.2910     395.6680
   1416.56677     793.4147     395.5728   1416.56677     793.4147     395.5728
   1416.55151     793.3834     397.0681   1416.55151     793.3834     397.0681
   1416.53625     794.9295     396.9519   1416.53625     794.9295     396.9519
   1416.52100     793.3516     397.4998   1416.52100     793.3516     397.4998
   1416.50574     793.8793     398.0502   1416.50574     793.8793     398.0502
   1416.49048     793.9943     398.6512   1416.49048     793.9943     398.6512
   1416.47522     794.4416     398.4921   1416.47522     794.4416     398.4921
   1416.45996     793.7708     399.3392   1416.45996     793.7708     399.3392
   1416.44470     793.1171     399.3033   1416.44470     793.1171     399.3033
   1416.42944     794.7496     400.6244   1416.42944     794.7496     400.6244
   1416.41418     793.8993     400.8141   1416.41418     793.8993     400.8141
   1416.39893     793.6061     401.4161   1416.39893     793.6061     401.4161
   1416.38367     794.7903     402.1767   1416.38367     794.7903     402.1767
   1416.36841     792.6862     402.0243   1416.36841     792.6862     402.0243
   1416.35315     792.4860     402.6905   1416.35315     792.4860     402.6905
   1416.33789     793.8549     402.7551   1416.33789     793.8549     402.7551
   1416.32263     793.2013     402.6561   1416.32263     793.2013     402.6561
   1416.30737     792.2162     403.1106   1416.30737     792.2162     403.1106
   1416.29211     792.4805     403.8224   1416.29211     792.4805     403.8224
   1416.27686     793.4810     404.0687   1416.27686     793.4810     404.0687
   1416.26160     793.1830     404.6585   1416.26160     793.1830     404.6585
   1416.24634     791.8826     404.8384   1416.24634     791.8826     404.8384
   1416.23108     791.2280     405.2429   1416.23108     791.2280     405.2429
   1416.21582     791.0944     405.3630   1416.21582     791.0944     405.3630
   1416.20056     791.4120     405.5025   1416.20056     791.4120     405.5025
   1416.18530     791.4560     405.3204   1416.18530     791.4560     405.3204
   1416.17004     791.4365     405.9867   1416.17004     791.4365     405.9867
   1416.15479     790.4893     406.2899   1416.15479     790.4893     406.2899
   1416.13953     790.5876     406.1750   1416.13953     790.5876     406.1750
   1416.12427     789.2866     406.7016   1416.12427     789.2866     406.7016
   1416.10901     789.8417     406.9945   1416.10901     789.8417     406.9945
   1416.09375     789.1398     407.0906   1416.09375     789.1398     407.0906
   1416.07849     788.4545     407.5634   1416.07849     788.4545     407.5634
   1416.06323     788.6563     407.1049   1416.06323     788.6563     407.1049
   1416.04797     787.6530     407.7473   1416.04797     787.6530     407.7473
   1416.03271     787.8857     408.6256   1416.03271     787.8857     408.6256
   1416.01746     786.9782     408.2570   1416.01746     786.9782     408.2570
   1416.00220     787.0192     408.2550   1416.00220     787.0192     408.2550
   1415.98694     786.7300     408.0099   1415.98694     786.7300     408.0099
   1415.97168     787.1527     408.0592   1415.97168     787.1527     408.0592
   1415.95642     785.8712     408.3813   1415.95642     785.8712     408.3813
   1415.94116     783.5807     407.7614   1415.94116     783.5807     407.7614
   1415.92590     783.3565     408.5494   1415.92590     783.3565     408.5494
   1415.91064     783.2740     408.8142   1415.91064     783.2740     408.8142
   1415.89539     783.6353     408.7822   1415.89539     783.6353     408.7822
   1415.88013     783.1080     408.9272   1415.88013     783.1080     408.9272
   1415.86487     782.8713     408.6352   1415.86487     782.8713     408.6352
   1415.84961     781.5814     409.1592   1415.84961     781.5814     409.1592
   1415.83435     781.7134     408.6288   1415.83435     781.7134     408.6288
   1415.81909     781.4312     410.2248   1415.81909     781.4312     410.2248
   1415.80383     780.2666     408.8083   1415.80383     780.2666     408.8083
   1415.78857     777.3875     408.8690   1415.78857     777.3875     408.8690
   1415.77332     778.7260     409.9354   1415.77332     778.7260     409.9354
   1415.75806     778.4872     409.4724   1415.75806     778.4872     409.4724
   1415.74280     776.8863     409.4507   1415.74280     776.8863     409.4507
   1415.72754     777.8461     409.1822   1415.72754     777.8461     409.1822
   1415.71228     776.2825     408.9053   1415.71228     776.2825     408.9053
   1415.69702     776.2358     408.9839   1415.69702     776.2358     408.9839
   1415.68176     775.1495     408.7007   1415.68176     775.1495     408.7007
   1415.66650     773.7897     409.1795   1415.66650     773.7897     409.1795
   1415.65125     774.0119     409.5161   1415.65125     774.0119     409.5161
   1415.63599     772.4832     409.0772   1415.63599     772.4832     409.0772
   1415.62073     772.5999     408.1965   1415.62073     772.5999     408.1965
   1415.60547     771.0802     409.0872   1415.60547     771.0802     409.0872
   1415.59021     769.5497     408.1063   1415.59021     769.5497     408.1063
   1415.57495     770.1628     408.8666   1415.57495     770.1628     408.8666
   1415.55969     770.0554     408.5939   1415.55969     770.0554     408.5939
   1415.54443     769.3005     408.2994   1415.54443     769.3005     408.2994
   1415.52917     766.1926     407.4686   1415.52917     766.1926     407.4686
   1415.51392     767.7037     407.7681   1415.51392     767.7037     407.7681
   1415.49866     766.2221     407.6353   1415.49866     766.2221     407.6353
   1415.48340     765.3156     408.3796   1415.48340     765.3156     408.3796
   1415.46814     764.7619     408.0080   1415.46814     764.7619     408.0080
   1415.45288     762.2077     407.7809   1415.45288     762.2077     407.7809
   1415.43762     762.8656     407.6272   1415.43762     762.8656     407.6272
   1415.42236     760.5419     407.3406   1415.42236     760.5419     407.3406
   1415.40710     760.7878     406.4646   1415.40710     760.7878     406.4646
   1415.39185     759.3607     407.5471   1415.39185     759.3607     407.5471
   1415.37659     757.0905     406.3152   1415.37659     757.0905     406.3152
   1415.36133     757.3583     406.7124   1415.36133     757.3583     406.7124
   1415.34607     756.8395     406.2563   1415.34607     756.8395     406.2563
   1415.33081     755.6842     405.7989   1415.33081     755.6842     405.7989
   1415.31555     755.1747     405.4397   1415.31555     755.1747     405.4397
   1415.30029     753.2938     405.5784   1415.30029     753.2938     405.5784
   1415.28503     753.0681     405.5899   1415.28503     753.0681     405.5899
   1415.26978     752.1962     405.3816   1415.26978     752.1962     405.3816
   1415.25452     750.3993     404.4283   1415.25452     750.3993     404.4283
   1415.23926     749.3396     404.2926   1415.23926     749.3396     404.2926
   1415.22400     749.2280     404.2484   1415.22400     749.2280     404.2484
   1415.20874     748.2111     403.8116   1415.20874     748.2111     403.8116
   1415.19348     747.1228     403.4830   1415.19348     747.1228     403.4830
   1415.17822     745.5224     403.4154   1415.17822     745.5224     403.4154
   1415.16296     742.3846     402.8539   1415.16296     742.3846     402.8539
   1415.14771     741.5890     403.3039   1415.14771     741.5890     403.3039
   1415.13245     741.5097     402.7013   1415.13245     741.5097     402.7013
   1415.11719     739.5742     402.1834   1415.11719     739.5742     402.1834
   1415.10193     738.6044     402.0341   1415.10193     738.6044     402.0341
   1415.08667     736.7037     400.9362   1415.08667     736.7037     400.9362
   1415.07141     736.5181     400.9456   1415.07141     736.5181     400.9456
   1415.05615     734.6542     400.2749   1415.05615     734.6542     400.2749
   1415.04089     733.0086     400.0966   1415.04089     733.0086     400.0966
   1415.02563     732.1945     400.3188   1415.02563     732.1945     400.3188
   1415.01038     732.4979     399.8649   1415.01038     732.4979     399.8649
   1414.99512     730.3435     399.4751   1414.99512     730.3435     399.4751
   1414.97986     727.5464     398.5103   1414.97986     727.5464     398.5103
   1414.96460     726.0689     398.4459   1414.96460     726.0689     398.4459
   1414.94934     726.7762     397.8306   1414.94934     726.7762     397.8306
   1414.93408     724.2536     397.4026   1414.93408     724.2536     397.4026
   1414.91882     722.0908     397.1936   1414.91882     722.0908     397.1936
   1414.90356     720.9291     395.8494   1414.90356     720.9291     395.8494
   1414.88831     718.7277     395.3641   1414.88831     718.7277     395.3641
   1414.87305     717.6956     394.7250   1414.87305     717.6956     394.7250
   1414.85779     716.6670     394.0467   1414.85779     716.6670     394.0467
   1414.84253     714.1244     394.7708   1414.84253     714.1244     394.7708
   1414.82727     712.7884     394.3559   1414.82727     712.7884     394.3559
   1414.81201     711.7668     393.2502   1414.81201     711.7668     393.2502
   1414.79675     711.0325     392.9151   1414.79675     711.0325     392.9151
   1414.78149     707.9721     392.2864   1414.78149     707.9721     392.2864
   1414.76624     707.4241     391.3997   1414.76624     707.4241     391.3997
   1414.75098     705.8597     390.7185   1414.75098     705.8597     390.7185
   1414.73572     703.4973     390.2299   1414.73572     703.4973     390.2299
   1414.72046     701.5391     389.0216   1414.72046     701.5391     389.0216
   1414.70520     700.0853     389.3549   1414.70520     700.0853     389.3549
   1414.68994     697.7001     387.9590   1414.68994     697.7001     387.9590
   1414.67468     697.0195     388.0240   1414.67468     697.0195     388.0240
   1414.65942     693.8954     386.2259   1414.65942     693.8954     386.2259
   1414.64417     692.2844     385.9776   1414.64417     692.2844     385.9776
   1414.62891     689.8256     385.5704   1414.62891     689.8256     385.5704
   1414.61365     689.0311     384.6505   1414.61365     689.0311     384.6505
   1414.59839     687.5660     384.4536   1414.59839     687.5660     384.4536
   1414.58313     683.8351     383.4424   1414.58313     683.8351     383.4424
   1414.56787     683.6806     381.9657   1414.56787     683.6806     381.9657
   1414.55261     680.3870     381.3961   1414.55261     680.3870     381.3961
   1414.53735     680.4668     380.8870   1414.53735     680.4668     380.8870
   1414.52209     676.8766     379.7724   1414.52209     676.8766     379.7724
   1414.50684     675.3326     378.7567   1414.50684     675.3326     378.7567
   1414.49158     672.3278     378.0879   1414.49158     672.3278     378.0879
   1414.47632     670.7259     377.9681   1414.47632     670.7259     377.9681
   1414.46106     668.5336     377.0233   1414.46106     668.5336     377.0233
   1414.44580     666.5508     375.5381   1414.44580     666.5508     375.5381
   1414.43054     664.3097     375.0132   1414.43054     664.3097     375.0132
   1414.41528     661.4390     374.2703   1414.41528     661.4390     374.2703
   1414.40002     659.7659     372.9811   1414.40002     659.7659     372.9811
   1414.38477     657.3297     372.5978   1414.38477     657.3297     372.5978
   1414.36951     655.2157     371.1158   1414.36951     655.2157     371.1158
   1414.35425     652.7288     370.1526   1414.35425     652.7288     370.1526
   1414.33899     650.5639     369.6993   1414.33899     650.5639     369.6993
   1414.32373     649.5469     369.0948   1414.32373     649.5469     369.0948
   1414.30847     646.3629     367.5836   1414.30847     646.3629     367.5836
   1414.29321     643.4887     366.6578   1414.29321     643.4887     366.6578
   1414.27795     642.3521     365.5019   1414.27795     642.3521     365.5019
   1414.26270     640.0039     363.8266   1414.26270     640.0039     363.8266
   1414.24744     636.0016     363.2185   1414.24744     636.0016     363.2185
   1414.23218     634.5985     362.0093   1414.23218     634.5985     362.0093
   1414.21692     632.6025     361.7971   1414.21692     632.6025     361.7971
   1414.20166     629.9404     360.2004   1414.20166     629.9404     360.2004
   1414.18640     628.0079     358.7895   1414.18640     628.0079     358.7895
   1414.17114     625.5837     358.6342   1414.17114     625.5837     358.6342
   1414.15588     622.0199     357.4812   1414.15588     622.0199     357.4812
   1414.14062     620.6036     356.1599   1414.14062     620.6036     356.1599
   1414.12537     617.0142     355.2418   1414.12537     617.0142     355.2418
   1414.11011     614.9767     353.8094   1414.11011     614.9767     353.8094
   1414.09485     612.3946     352.5473   1414.09485     612.3946     352.5473
   1414.07959     610.9466     351.4459   1414.07959     610.9466     351.4459
   1414.06433     606.6747     351.0352   1414.06433     606.6747     351.0352
   1414.04907     604.5947     349.5819   1414.04907     604.5947     349.5819
   1414.03381     601.7982     348.2803   1414.03381     601.7982     348.2803
   1414.01855     599.3787     346.6253   1414.01855     599.3787     346.6253
   1414.00330     618.1913     354.3518   1414.00330     618.1913     354.3518
   1413.98804     595.3198     344.7412   1413.98804     595.3198     344.7412
   1413.97278     591.2280     343.9004   1413.97278     591.2280     343.9004
   1413.95752     588.4382     342.4214   1413.95752     588.4382     342.4214
   1413.94226     585.1136     340.9991   1413.94226     585.1136     340.9991
   1413.92700     583.5469     339.6891   1413.92700     583.5469     339.6891
   1413.91174     580.0085     338.6640   1413.91174     580.0085     338.6640
   1413.89648     577.8622     336.7341   1413.89648     577.8622     336.7341
   1413.88123     574.7211     335.8493   1413.88123     574.7211     335.8493
   1413.86597     572.8423     334.4476   1413.86597     572.8423     334.4476
   1413.85071     569.4807     333.5416   1413.85071     569.4807     333.5416
   1413.83545     566.8444     332.0019   1413.83545     566.8444     332.0019
   1413.82019     563.8011     331.1838   1413.82019     563.8011     331.1838
   1413.80493     562.0989     329.5381   1413.80493     562.0989     329.5381
   1413.78967     557.4957     328.0220   1413.78967     557.4957     328.0220
   1413.77441     554.9160     327.0127   1413.77441     554.9160     327.0127
   1413.75916     552.4824     325.5696   1413.75916     552.4824     325.5696
   1413.74390     549.8679     324.2517   1413.74390     549.8679     324.2517
   1413.72864     546.7471     322.7858   1413.72864     546.7471     322.7858
   1413.71338     544.0572     321.7985   1413.71338     544.0572     321.7985
   1413.69812     541.1971     320.7915   1413.69812     541.1971     320.7915
   1413.68286     538.6674     319.1756   1413.68286     538.6674     319.1756
   1413.66760     535.9301     317.7677   1413.66760     535.9301     317.7677
   1413.65234     532.4745     316.4190   1413.65234     532.4745     316.4190
   1413.63708     529.9558     315.6226   1413.63708     529.9558     315.6226
   1413.62183     527.3474     314.4456   1413.62183     527.3474     314.4456
   1413.60657     524.8533     313.1396   1413.60657     524.8533     313.1396
   1413.59131     521.9967     311.7210   1413.59131     521.9967     311.7210
   1413.57605     519.2452     310.3364   1413.57605     519.2452     310.3364
   1413.56079     516.7407     309.1048   1413.56079     516.7407     309.1048
   1413.54553     512.8638     308.1261   1413.54553     512.8638     308.1261
   1413.53027     510.2355     306.3678   1413.53027     510.2355     306.3678
   1413.51501     507.3976     305.5293   1413.51501     507.3976     305.5293
   1413.49976     504.4777     303.3054   1413.49976     504.4777     303.3054
   1413.48450     502.4775     302.4195   1413.48450     502.4775     302.4195
   1413.46924     499.4202     300.9328   1413.46924     499.4202     300.9328
   1413.45398     496.8850     299.8960   1413.45398     496.8850     299.8960
   1413.43872     494.6590     298.8499   1413.43872     494.6590     298.8499
   1413.42346     491.2028     297.8604   1413.42346     491.2028     297.8604
   1413.40820     488.5050     296.5807   1413.40820     488.5050     296.5807
   1413.39294     485.4665     295.0532   1413.39294     485.4665     295.0532
   1413.37769     482.7831     293.8433   1413.37769     482.7831     293.8433
   1413.36243     480.5555     292.3048   1413.36243     480.5555     292.3048
   1413.34717     476.5537     291.5416   1413.34717     476.5537     291.5416
   1413.33191     475.4107     290.4288   1413.33191     475.4107     290.4288
   1413.31665     472.2050     288.8091   1413.31665     472.2050     288.8091
   1413.30139     469.5573     287.8426   1413.30139     469.5573     287.8426
   1413.28613     467.5647     286.6948   1413.28613     467.5647     286.6948
   1413.27087     464.1666     285.6307   1413.27087     464.1666     285.6307
   1413.25562     463.0355     284.3874   1413.25562     463.0355     284.3874
   1413.24036     459.7638     283.2817   1413.24036     459.7638     283.2817
   1413.22510     456.9946     282.3361   1413.22510     456.9946     282.3361
   1413.20984     454.5972     281.2883   1413.20984     454.5972     281.2883
   1413.19458     452.2359     280.1847   1413.19458     452.2359     280.1847
   1413.17932     449.8723     279.3429   1413.17932     449.8723     279.3429
   1413.16406     447.1389     277.4933   1413.16406     447.1389     277.4933
   1413.14880     444.6299     276.8581   1413.14880     444.6299     276.8581
   1413.13354     442.2583     275.9102   1413.13354     442.2583     275.9102
   1413.11829     439.6495     275.0498   1413.11829     439.6495     275.0498
   1413.10303     437.0664     273.5547   1413.10303     437.0664     273.5547
   1413.08777     435.5888     273.0816   1413.08777     435.5888     273.0816
   1413.07251     433.1834     271.9291   1413.07251     433.1834     271.9291
   1413.05725     430.6285     270.6389   1413.05725     430.6285     270.6389
   1413.04199     428.6851     270.4091   1413.04199     428.6851     270.4091
   1413.02673     425.9809     269.3605   1413.02673     425.9809     269.3605
   1413.01147     424.9830     268.4744   1413.01147     424.9830     268.4744
   1412.99622     421.8214     268.0911   1412.99622     421.8214     268.0911
   1412.98096     419.8631     267.3452   1412.98096     419.8631     267.3452
   1412.96570     418.2321     265.9248   1412.96570     418.2321     265.9248
   1412.95044     415.7711     265.3414   1412.95044     415.7711     265.3414
   1412.93518     414.5037     264.5089   1412.93518     414.5037     264.5089
   1412.91992     412.8917     263.8360   1412.91992     412.8917     263.8360
   1412.90466     410.3274     263.3297   1412.90466     410.3274     263.3297
   1412.88940     408.7687     262.9511   1412.88940     408.7687     262.9511
   1412.87415     407.1219     262.4442   1412.87415     407.1219     262.4442
   1412.85889     404.8664     261.7081   1412.85889     404.8664     261.7081
   1412.84363     403.2783     260.5606   1412.84363     403.2783     260.5606
   1412.82837     401.9767     260.4101   1412.82837     401.9767     260.4101
   1412.81311     400.0472     260.2705   1412.81311     400.0472     260.2705
   1412.79785     397.9109     259.6297   1412.79785     397.9109     259.6297
   1412.78259     396.6175     259.3728   1412.78259     396.6175     259.3728
   1412.76733     395.5078     259.0139   1412.76733     395.5078     259.0139
   1412.75208     394.1104     258.3832   1412.75208     394.1104     258.3832
   1412.73682     392.6574     258.4888   1412.73682     392.6574     258.4888
   1412.72156     391.7442     257.8878   1412.72156     391.7442     257.8878
   1412.70630     389.8828     257.7792   1412.70630     389.8828     257.7792
   1412.69104     388.4485     257.6284   1412.69104     388.4485     257.6284
   1412.67578     387.7668     257.7278   1412.67578     387.7668     257.7278
   1412.66052     386.9964     257.5110   1412.66052     386.9964     257.5110
   1412.64526     385.2629     257.3714   1412.64526     385.2629     257.3714
   1412.63000     384.0884     257.1782   1412.63000     384.0884     257.1782
   1412.61475     384.0130     257.0498   1412.61475     384.0130     257.0498
   1412.59949     381.9583     257.1941   1412.59949     381.9583     257.1941
   1412.58423     381.7047     257.6359   1412.58423     381.7047     257.6359
   1412.56897     380.3409     257.5536   1412.56897     380.3409     257.5536
   1412.55371     379.8880     257.4789   1412.55371     379.8880     257.4789
   1412.53845     378.8893     258.3076   1412.53845     378.8893     258.3076
   1412.52319     378.2628     257.9355   1412.52319     378.2628     257.9355
   1412.50793     377.8965     258.5188   1412.50793     377.8965     258.5188
   1412.49268     377.6259     258.8406   1412.49268     377.6259     258.8406
   1412.47742     376.6273     259.3174   1412.47742     376.6273     259.3174
   1412.46216     376.5234     259.5023   1412.46216     376.5234     259.5023
   1412.44690     376.0477     259.6193   1412.44690     376.0477     259.6193
   1412.43164     375.6857     260.7903   1412.43164     375.6857     260.7903
   1412.41638     375.4339     261.4111   1412.41638     375.4339     261.4111
   1412.40112     374.8731     261.9720   1412.40112     374.8731     261.9720
   1412.38586     375.1998     262.4370   1412.38586     375.1998     262.4370
   1412.37061     374.8219     263.1519   1412.37061     374.8219     263.1519
   1412.35535     374.6086     263.5525   1412.35535     374.6086     263.5525
   1412.34009     374.4335     264.8167   1412.34009     374.4335     264.8167
   1412.32483     374.7354     265.7603   1412.32483     374.7354     265.7603
   1412.30957     374.9193     266.0704   1412.30957     374.9193     266.0704
   1412.29431     375.5299     267.5254   1412.29431     375.5299     267.5254
   1412.27905     375.0687     267.7666   1412.27905     375.0687     267.7666
   1412.26379     375.8623     269.2515   1412.26379     375.8623     269.2515
   1412.24854     375.8200     270.1527   1412.24854     375.8200     270.1527
   1412.23328     375.9948     271.5374   1412.23328     375.9948     271.5374
   1412.21802     376.8449     272.5397   1412.21802     376.8449     272.5397
   1412.20276     376.9141     273.8994   1412.20276     376.9141     273.8994