#     FILENAME=!Skynet_57528_lach-cc-202_20607_21057.cyb.fits
#     BASENAME=Skynet_57528_lach-cc-202_20607_21057
#     SRC_NAME=lach-cc-202
#     OBSERVER=ccmadison16_9505
#     DATE_OBS=2016-05-20T20:30:53.930
#        OBSID=20607
#      SCANNUM=21057
#          MJD=57528.8558
#          UTC=73942
#     SCANTYPE=track
#     DATAMODE=HIRES
#     TUNEFREQ=1420.0000
# Actual_FREQ1=1420.0000
# Actual_FREQ2=1420.0000
#    LO1Tuning=6870.000
#     RFFILTER=1355_1435
#        OBSBW=-15.6250
#        NCHAN=1024 
#        FOCUS=37.1148
#           RA=06:31:15.25
#          DEC=09:43:01.19
#      RA(hrs)=6.520900
#     DEC(deg)=9.717000
#    AZIM(deg)=197.089
#    ELEV(deg)=60.083
#     IFattens=10.00, 9.00
#      WARNING=None
#    TCAL_XL1=7.9635
#    TCAL_YR1=9.1340
#    TCAL_XL2=7.9635
#    TCAL_YR2=9.1340
#     TRX_XL1=11.7060
#     TRX_YR1=11.7060
#     TRX_XL2=11.7060
#     TRX_YR2=11.7060
#        TAVE=1.0000
#Freq1(MHz)          XL1          YR1  Freq2(MHz)          XL2          YR2 

   1427.81250     363.0721     269.6318   1427.81250     363.0721     269.6318
   1427.79724     363.6061     270.1459   1427.79724     363.6061     270.1459
   1427.78198     364.4189     271.0717   1427.78198     364.4189     271.0717
   1427.76672     365.1882     271.7642   1427.76672     365.1882     271.7642
   1427.75146     365.7085     272.6983   1427.75146     365.7085     272.6983
   1427.73621     367.2979     273.6942   1427.73621     367.2979     273.6942
   1427.72095     367.5221     274.9848   1427.72095     367.5221     274.9848
   1427.70569     368.9118     275.4665   1427.70569     368.9118     275.4665
   1427.69043     369.6841     276.7731   1427.69043     369.6841     276.7731
   1427.67517     370.3885     277.9910   1427.67517     370.3885     277.9910
   1427.65991     371.8029     278.7805   1427.65991     371.8029     278.7805
   1427.64465     373.6602     280.7402   1427.64465     373.6602     280.7402
   1427.62939     374.4919     281.9230   1427.62939     374.4919     281.9230
   1427.61414     375.8357     282.9290   1427.61414     375.8357     282.9290
   1427.59888     376.7972     283.7600   1427.59888     376.7972     283.7600
   1427.58362     378.4503     285.4827   1427.58362     378.4503     285.4827
   1427.56836     379.5519     286.6048   1427.56836     379.5519     286.6048
   1427.55310     380.5326     288.1327   1427.55310     380.5326     288.1327
   1427.53784     383.3069     289.0519   1427.53784     383.3069     289.0519
   1427.52258     384.6503     290.7587   1427.52258     384.6503     290.7587
   1427.50732     386.2079     292.5412   1427.50732     386.2079     292.5412
   1427.49207     387.6397     294.1867   1427.49207     387.6397     294.1867
   1427.47681     389.3197     295.6147   1427.47681     389.3197     295.6147
   1427.46155     391.2352     297.8838   1427.46155     391.2352     297.8838
   1427.44629     393.0780     299.2932   1427.44629     393.0780     299.2932
   1427.43103     394.6392     300.5703   1427.43103     394.6392     300.5703
   1427.41577     396.6208     302.8965   1427.41577     396.6208     302.8965
   1427.40051     398.1992     304.3124   1427.40051     398.1992     304.3124
   1427.38525     400.5271     306.4685   1427.38525     400.5271     306.4685
   1427.37000     401.8748     307.6417   1427.37000     401.8748     307.6417
   1427.35474     404.4682     309.3564   1427.35474     404.4682     309.3564
   1427.33948     406.5736     311.8638   1427.33948     406.5736     311.8638
   1427.32422     408.2855     313.8088   1427.32422     408.2855     313.8088
   1427.30896     410.1705     315.1674   1427.30896     410.1705     315.1674
   1427.29370     413.0154     317.5186   1427.29370     413.0154     317.5186
   1427.27844     415.2658     319.8964   1427.27844     415.2658     319.8964
   1427.26318     417.2796     321.9341   1427.26318     417.2796     321.9341
   1427.24792     419.9984     324.2605   1427.24792     419.9984     324.2605
   1427.23267     421.8103     326.0091   1427.23267     421.8103     326.0091
   1427.21741     424.1956     328.2531   1427.21741     424.1956     328.2531
   1427.20215     427.1815     330.2827   1427.20215     427.1815     330.2827
   1427.18689     429.5589     332.3543   1427.18689     429.5589     332.3543
   1427.17163     431.8383     334.2201   1427.17163     431.8383     334.2201
   1427.15637     435.2465     336.8676   1427.15637     435.2465     336.8676
   1427.14111     436.3087     338.6397   1427.14111     436.3087     338.6397
   1427.12585     439.1647     341.2958   1427.12585     439.1647     341.2958
   1427.11060     442.1589     343.4522   1427.11060     442.1589     343.4522
   1427.09534     444.3210     346.0850   1427.09534     444.3210     346.0850
   1427.08008     447.3772     348.1377   1427.08008     447.3772     348.1377
   1427.06482     450.5530     350.3989   1427.06482     450.5530     350.3989
   1427.04956     452.7273     352.9351   1427.04956     452.7273     352.9351
   1427.03430     455.3580     354.8724   1427.03430     455.3580     354.8724
   1427.01904     458.8971     358.1720   1427.01904     458.8971     358.1720
   1427.00378     460.3196     360.7590   1427.00378     460.3196     360.7590
   1426.98853     464.2637     363.3814   1426.98853     464.2637     363.3814
   1426.97327     466.6602     365.5786   1426.97327     466.6602     365.5786
   1426.95801     469.4585     368.1751   1426.95801     469.4585     368.1751
   1426.94275     471.8500     370.5185   1426.94275     471.8500     370.5185
   1426.92749     475.3473     373.2419   1426.92749     475.3473     373.2419
   1426.91223     478.9852     375.2188   1426.91223     478.9852     375.2188
   1426.89697     480.9698     378.4819   1426.89697     480.9698     378.4819
   1426.88171     484.0151     381.0245   1426.88171     484.0151     381.0245
   1426.86646     486.8018     383.5073   1426.86646     486.8018     383.5073
   1426.85120     489.6520     385.4211   1426.85120     489.6520     385.4211
   1426.83594     492.8037     388.9521   1426.83594     492.8037     388.9521
   1426.82068     494.7115     391.4568   1426.82068     494.7115     391.4568
   1426.80542     498.4047     393.7436   1426.80542     498.4047     393.7436
   1426.79016     501.6045     396.0804   1426.79016     501.6045     396.0804
   1426.77490     504.3763     399.0039   1426.77490     504.3763     399.0039
   1426.75964     507.1776     402.6492   1426.75964     507.1776     402.6492
   1426.74438     511.0233     404.2797   1426.74438     511.0233     404.2797
   1426.72913     514.1309     407.8545   1426.72913     514.1309     407.8545
   1426.71387     516.7292     409.3556   1426.71387     516.7292     409.3556
   1426.69861     519.1923     412.5108   1426.69861     519.1923     412.5108
   1426.68335     523.4292     415.1657   1426.68335     523.4292     415.1657
   1426.66809     526.2218     417.5970   1426.66809     526.2218     417.5970
   1426.65283     528.7516     420.9816   1426.65283     528.7516     420.9816
   1426.63757     531.1969     423.1747   1426.63757     531.1969     423.1747
   1426.62231     535.6777     430.7506   1426.62231     535.6777     430.7506
   1426.60706     537.9601     428.8966   1426.60706     537.9601     428.8966
   1426.59180     540.7065     430.9477   1426.59180     540.7065     430.9477
   1426.57654     544.0979     433.7230   1426.57654     544.0979     433.7230
   1426.56128     546.7725     436.6879   1426.56128     546.7725     436.6879
   1426.54602     549.3736     439.7393   1426.54602     549.3736     439.7393
   1426.53076     552.6464     442.4040   1426.53076     552.6464     442.4040
   1426.51550     555.2302     444.7929   1426.51550     555.2302     444.7929
   1426.50024     557.7860     446.8434   1426.50024     557.7860     446.8434
   1426.48499     561.2840     449.8388   1426.48499     561.2840     449.8388
   1426.46973     564.7792     453.0007   1426.46973     564.7792     453.0007
   1426.45447     568.5993     455.4908   1426.45447     568.5993     455.4908
   1426.43921     570.8528     458.3804   1426.43921     570.8528     458.3804
   1426.42395     574.1401     460.4389   1426.42395     574.1401     460.4389
   1426.40869     576.5364     463.0904   1426.40869     576.5364     463.0904
   1426.39343     579.5067     465.5074   1426.39343     579.5067     465.5074
   1426.37817     581.8721     468.5690   1426.37817     581.8721     468.5690
   1426.36292     584.4160     471.1519   1426.36292     584.4160     471.1519
   1426.34766     587.5477     473.7533   1426.34766     587.5477     473.7533
   1426.33240     590.0595     475.4563   1426.33240     590.0595     475.4563
   1426.31714     593.4313     478.2351   1426.31714     593.4313     478.2351
   1426.30188     595.6951     481.5479   1426.30188     595.6951     481.5479
   1426.28662     598.9449     483.2763   1426.28662     598.9449     483.2763
   1426.27136     601.4863     486.1452   1426.27136     601.4863     486.1452
   1426.25610     604.0652     488.3293   1426.25610     604.0652     488.3293
   1426.24084     607.8214     491.0309   1426.24084     607.8214     491.0309
   1426.22559     610.3801     493.4919   1426.22559     610.3801     493.4919
   1426.21033     613.2549     496.4629   1426.21033     613.2549     496.4629
   1426.19507     615.5754     498.5966   1426.19507     615.5754     498.5966
   1426.17981     618.2650     501.4412   1426.17981     618.2650     501.4412
   1426.16455     620.4493     503.3274   1426.16455     620.4493     503.3274
   1426.14929     622.1049     505.6740   1426.14929     622.1049     505.6740
   1426.13403     626.0522     507.6688   1426.13403     626.0522     507.6688
   1426.11877     628.6273     511.1351   1426.11877     628.6273     511.1351
   1426.10352     629.9469     512.5860   1426.10352     629.9469     512.5860
   1426.08826     634.6490     515.4233   1426.08826     634.6490     515.4233
   1426.07300     635.4771     517.6413   1426.07300     635.4771     517.6413
   1426.05774     638.0714     520.1324   1426.05774     638.0714     520.1324
   1426.04248     640.4128     522.2704   1426.04248     640.4128     522.2704
   1426.02722     643.0539     524.2221   1426.02722     643.0539     524.2221
   1426.01196     644.9188     526.5334   1426.01196     644.9188     526.5334
   1425.99670     648.6788     528.9391   1425.99670     648.6788     528.9391
   1425.98145     649.0943     530.5666   1425.98145     649.0943     530.5666
   1425.96619     651.6708     532.0374   1425.96619     651.6708     532.0374
   1425.95093     653.8334     534.4194   1425.95093     653.8334     534.4194
   1425.93567     656.1768     536.3378   1425.93567     656.1768     536.3378
   1425.92041     659.0954     539.3116   1425.92041     659.0954     539.3116
   1425.90515     660.6580     541.5767   1425.90515     660.6580     541.5767
   1425.88989     663.3327     543.2028   1425.88989     663.3327     543.2028
   1425.87463     666.1331     544.8412   1425.87463     666.1331     544.8412
   1425.85938     667.2009     547.8987   1425.85938     667.2009     547.8987
   1425.84412     669.8903     549.0397   1425.84412     669.8903     549.0397
   1425.82886     671.4411     551.0375   1425.82886     671.4411     551.0375
   1425.81360     674.4575     553.0583   1425.81360     674.4575     553.0583
   1425.79834     674.8739     555.2976   1425.79834     674.8739     555.2976
   1425.78308     677.1707     558.5361   1425.78308     677.1707     558.5361
   1425.76782     679.4296     558.4005   1425.76782     679.4296     558.4005
   1425.75256     680.8016     560.3904   1425.75256     680.8016     560.3904
   1425.73730     682.1377     562.1146   1425.73730     682.1377     562.1146
   1425.72205     684.8002     564.3961   1425.72205     684.8002     564.3961
   1425.70679     685.7048     566.0058   1425.70679     685.7048     566.0058
   1425.69153     688.0361     568.1149   1425.69153     688.0361     568.1149
   1425.67627     689.3718     570.0747   1425.67627     689.3718     570.0747
   1425.66101     691.3741     571.2968   1425.66101     691.3741     571.2968
   1425.64575     693.8463     572.6273   1425.64575     693.8463     572.6273
   1425.63049     695.2599     573.9640   1425.63049     695.2599     573.9640
   1425.61523     696.0948     575.2281   1425.61523     696.0948     575.2281
   1425.59998     698.2159     577.6038   1425.59998     698.2159     577.6038
   1425.58472     699.3524     578.8210   1425.58472     699.3524     578.8210
   1425.56946     701.9432     581.3965   1425.56946     701.9432     581.3965
   1425.55420     702.7972     582.8668   1425.55420     702.7972     582.8668
   1425.53894     703.4552     584.0227   1425.53894     703.4552     584.0227
   1425.52368     706.0156     585.8859   1425.52368     706.0156     585.8859
   1425.50842     706.8461     586.3210   1425.50842     706.8461     586.3210
   1425.49316     708.5491     588.4644   1425.49316     708.5491     588.4644
   1425.47791     710.0253     589.2855   1425.47791     710.0253     589.2855
   1425.46265     711.4327     591.4047   1425.46265     711.4327     591.4047
   1425.44739     711.6007     592.1301   1425.44739     711.6007     592.1301
   1425.43213     711.6340     593.5873   1425.43213     711.6340     593.5873
   1425.41687     714.7251     596.6025   1425.41687     714.7251     596.6025
   1425.40161     715.6894     596.9551   1425.40161     715.6894     596.9551
   1425.38635     717.2499     597.5942   1425.38635     717.2499     597.5942
   1425.37109     718.8951     598.0944   1425.37109     718.8951     598.0944
   1425.35583     718.9713     599.6942   1425.35583     718.9713     599.6942
   1425.34058     720.4478     601.1706   1425.34058     720.4478     601.1706
   1425.32532     721.3032     602.1286   1425.32532     721.3032     602.1286
   1425.31006     721.4354     603.6912   1425.31006     721.4354     603.6912
   1425.29480     723.3397     604.0468   1425.29480     723.3397     604.0468
   1425.27954     723.4099     605.6879   1425.27954     723.4099     605.6879
   1425.26428     725.6439     607.3721   1425.26428     725.6439     607.3721
   1425.24902     725.1943     606.6169   1425.24902     725.1943     606.6169
   1425.23376     726.6745     608.0760   1425.23376     726.6745     608.0760
   1425.21851     727.6309     609.1078   1425.21851     727.6309     609.1078
   1425.20325     727.6380     610.3694   1425.20325     727.6380     610.3694
   1425.18799     729.0415     610.9908   1425.18799     729.0415     610.9908
   1425.17273     728.5423     612.5868   1425.17273     728.5423     612.5868
   1425.15747     730.6334     613.6060   1425.15747     730.6334     613.6060
   1425.14221     730.3083     613.8091   1425.14221     730.3083     613.8091
   1425.12695     731.5436     614.8118   1425.12695     731.5436     614.8118
   1425.11169     732.3593     616.6431   1425.11169     732.3593     616.6431
   1425.09644     732.8666     616.2750   1425.09644     732.8666     616.2750
   1425.08118     732.8718     618.3121   1425.08118     732.8718     618.3121
   1425.06592     733.5701     617.7120   1425.06592     733.5701     617.7120
   1425.05066     734.4484     618.0753   1425.05066     734.4484     618.0753
   1425.03540     735.1278     619.6315   1425.03540     735.1278     619.6315
   1425.02014     736.2567     619.4989   1425.02014     736.2567     619.4989
   1425.00488     736.3413     620.8572   1425.00488     736.3413     620.8572
   1424.98962     736.9984     621.0231   1424.98962     736.9984     621.0231
   1424.97437     736.3630     621.8584   1424.97437     736.3630     621.8584
   1424.95911     736.2101     621.8638   1424.95911     736.2101     621.8638
   1424.94385     737.7531     623.6636   1424.94385     737.7531     623.6636
   1424.92859     738.1185     624.3620   1424.92859     738.1185     624.3620
   1424.91333     738.5455     623.7144   1424.91333     738.5455     623.7144
   1424.89807     738.8520     624.0710   1424.89807     738.8520     624.0710
   1424.88281     737.9774     625.2538   1424.88281     737.9774     625.2538
   1424.86755     738.7627     624.6658   1424.86755     738.7627     624.6658
   1424.85229     738.8356     625.9203   1424.85229     738.8356     625.9203
   1424.83704     739.1941     627.2007   1424.83704     739.1941     627.2007
   1424.82178     738.7825     625.6071   1424.82178     738.7825     625.6071
   1424.80652     740.7953     627.0966   1424.80652     740.7953     627.0966
   1424.79126     738.5319     627.5874   1424.79126     738.5319     627.5874
   1424.77600     739.8275     627.9855   1424.77600     739.8275     627.9855
   1424.76074     740.3359     628.4960   1424.76074     740.3359     628.4960
   1424.74548     739.8032     628.9142   1424.74548     739.8032     628.9142
   1424.73022     739.9721     629.6094   1424.73022     739.9721     629.6094
   1424.71497     740.4989     628.7272   1424.71497     740.4989     628.7272
   1424.69971     740.6268     629.6201   1424.69971     740.6268     629.6201
   1424.68445     741.7111     630.5485   1424.68445     741.7111     630.5485
   1424.66919     741.7375     630.2085   1424.66919     741.7375     630.2085
   1424.65393     740.8577     630.0092   1424.65393     740.8577     630.0092
   1424.63867     740.8066     629.6856   1424.63867     740.8066     629.6856
   1424.62341     740.3606     630.4068   1424.62341     740.3606     630.4068
   1424.60815     741.1040     630.8479   1424.60815     741.1040     630.8479
   1424.59290     740.0913     629.9220   1424.59290     740.0913     629.9220
   1424.57764     740.1356     630.0436   1424.57764     740.1356     630.0436
   1424.56238     738.9863     630.8577   1424.56238     738.9863     630.8577
   1424.54712     741.0082     630.8925   1424.54712     741.0082     630.8925
   1424.53186     740.6686     630.4986   1424.53186     740.6686     630.4986
   1424.51660     739.9025     630.6814   1424.51660     739.9025     630.6814
   1424.50134     739.7670     631.3212   1424.50134     739.7670     631.3212
   1424.48608     738.9680     630.9752   1424.48608     738.9680     630.9752
   1424.47083     738.8647     630.4628   1424.47083     738.8647     630.4628
   1424.45557     738.6169     631.6354   1424.45557     738.6169     631.6354
   1424.44031     737.9379     629.8932   1424.44031     737.9379     629.8932
   1424.42505     739.3061     630.6100   1424.42505     739.3061     630.6100
   1424.40979     739.2017     630.1497   1424.40979     739.2017     630.1497
   1424.39453     737.8277     630.2889   1424.39453     737.8277     630.2889
   1424.37927     738.3446     629.9727   1424.37927     738.3446     629.9727
   1424.36401     737.9553     630.3176   1424.36401     737.9553     630.3176
   1424.34875     737.5386     629.9304   1424.34875     737.5386     629.9304
   1424.33350     737.9176     628.7489   1424.33350     737.9176     628.7489
   1424.31824     736.4816     628.9877   1424.31824     736.4816     628.9877
   1424.30298     735.9449     628.2347   1424.30298     735.9449     628.2347
   1424.28772     736.6373     628.3585   1424.28772     736.6373     628.3585
   1424.27246     735.8882     628.7751   1424.27246     735.8882     628.7751
   1424.25720     735.6478     628.8644   1424.25720     735.6478     628.8644
   1424.24194     736.4111     627.2048   1424.24194     736.4111     627.2048
   1424.22668     734.7983     628.2115   1424.22668     734.7983     628.2115
   1424.21143     735.0223     627.8049   1424.21143     735.0223     627.8049
   1424.19617     734.8162     627.0308   1424.19617     734.8162     627.0308
   1424.18091     735.0690     627.1271   1424.18091     735.0690     627.1271
   1424.16565     733.6651     626.6884   1424.16565     733.6651     626.6884
   1424.15039     734.3047     625.7821   1424.15039     734.3047     625.7821
   1424.13513     732.9132     626.3177   1424.13513     732.9132     626.3177
   1424.11987     733.1032     625.5925   1424.11987     733.1032     625.5925
   1424.10461     732.5047     625.8242   1424.10461     732.5047     625.8242
   1424.08936     733.1847     624.8381   1424.08936     733.1847     624.8381
   1424.07410     732.1383     625.3572   1424.07410     732.1383     625.3572
   1424.05884     731.7103     624.5582   1424.05884     731.7103     624.5582
   1424.04358     731.0941     624.0367   1424.04358     731.0941     624.0367
   1424.02832     731.6675     622.8889   1424.02832     731.6675     622.8889
   1424.01306     729.6667     622.8507   1424.01306     729.6667     622.8507
   1423.99780     729.0283     623.2618   1423.99780     729.0283     623.2618
   1423.98254     729.8640     622.1010   1423.98254     729.8640     622.1010
   1423.96729     728.8267     621.3608   1423.96729     728.8267     621.3608
   1423.95203     730.0905     620.9753   1423.95203     730.0905     620.9753
   1423.93677     728.5944     620.6439   1423.93677     728.5944     620.6439
   1423.92151     728.1034     620.7234   1423.92151     728.1034     620.7234
   1423.90625     728.7177     619.8480   1423.90625     728.7177     619.8480
   1423.89099     729.3189     619.5702   1423.89099     729.3189     619.5702
   1423.87573     726.6980     617.9163   1423.87573     726.6980     617.9163
   1423.86047     726.7896     617.9494   1423.86047     726.7896     617.9494
   1423.84521     726.7822     618.0374   1423.84521     726.7822     618.0374
   1423.82996     725.1722     616.7640   1423.82996     725.1722     616.7640
   1423.81470     725.3879     616.5477   1423.81470     725.3879     616.5477
   1423.79944     724.3641     616.3539   1423.79944     724.3641     616.3539
   1423.78418     724.6946     615.6086   1423.78418     724.6946     615.6086
   1423.76892     724.1693     614.8927   1423.76892     724.1693     614.8927
   1423.75366     724.8782     614.8026   1423.75366     724.8782     614.8026
   1423.73840     723.3575     614.4860   1423.73840     723.3575     614.4860
   1423.72314     721.8838     613.4893   1423.72314     721.8838     613.4893
   1423.70789     723.5439     611.9412   1423.70789     723.5439     611.9412
   1423.69263     722.3500     611.7996   1423.69263     722.3500     611.7996
   1423.67737     722.2358     611.4709   1423.67737     722.2358     611.4709
   1423.66211     721.7310     611.7127   1423.66211     721.7310     611.7127
   1423.64685     721.0885     609.4231   1423.64685     721.0885     609.4231
   1423.63159     720.8931     610.7466   1423.63159     720.8931     610.7466
   1423.61633     720.1233     609.0010   1423.61633     720.1233     609.0010
   1423.60107     719.1165     608.3749   1423.60107     719.1165     608.3749
   1423.58582     718.9180     607.0279   1423.58582     718.9180     607.0279
   1423.57056     719.4037     607.0919   1423.57056     719.4037     607.0919
   1423.55530     718.7806     605.3956   1423.55530     718.7806     605.3956
   1423.54004     718.8899     605.7812   1423.54004     718.8899     605.7812
   1423.52478     716.9078     604.7480   1423.52478     716.9078     604.7480
   1423.50952     716.8522     603.4929   1423.50952     716.8522     603.4929
   1423.49426     716.3641     603.6613   1423.49426     716.3641     603.6613
   1423.47900     717.0099     602.1801   1423.47900     717.0099     602.1801
   1423.46375     716.5049     601.8782   1423.46375     716.5049     601.8782
   1423.44849     716.8984     602.4407   1423.44849     716.8984     602.4407
   1423.43323     716.3747     600.8555   1423.43323     716.3747     600.8555
   1423.41797     715.3096     600.6334   1423.41797     715.3096     600.6334
   1423.40271     714.8210     600.4451   1423.40271     714.8210     600.4451
   1423.38745     714.5524     598.3624   1423.38745     714.5524     598.3624
   1423.37219     714.3033     599.6622   1423.37219     714.3033     599.6622
   1423.35693     712.3455     598.6503   1423.35693     712.3455     598.6503
   1423.34167     713.1809     597.2383   1423.34167     713.1809     597.2383
   1423.32642     712.0268     596.0493   1423.32642     712.0268     596.0493
   1423.31116     712.3781     595.8883   1423.31116     712.3781     595.8883
   1423.29590     711.1509     594.9893   1423.29590     711.1509     594.9893
   1423.28064     711.4284     593.2562   1423.28064     711.4284     593.2562
   1423.26538     711.9250     593.1255   1423.26538     711.9250     593.1255
   1423.25012     710.3075     592.1403   1423.25012     710.3075     592.1403
   1423.23486     710.0397     591.1459   1423.23486     710.0397     591.1459
   1423.21960     710.6019     589.9968   1423.21960     710.6019     589.9968
   1423.20435     708.7707     589.9057   1423.20435     708.7707     589.9057
   1423.18909     709.8908     589.6278   1423.18909     709.8908     589.6278
   1423.17383     709.4117     588.9406   1423.17383     709.4117     588.9406
   1423.15857     708.2956     587.1841   1423.15857     708.2956     587.1841
   1423.14331     708.3242     585.9917   1423.14331     708.3242     585.9917
   1423.12805     707.7371     585.5579   1423.12805     707.7371     585.5579
   1423.11279     707.6765     584.9260   1423.11279     707.6765     584.9260
   1423.09753     707.2658     584.5327   1423.09753     707.2658     584.5327
   1423.08228     706.9077     583.7213   1423.08228     706.9077     583.7213
   1423.06702     705.2499     583.0504   1423.06702     705.2499     583.0504
   1423.05176     706.0163     582.9630   1423.05176     706.0163     582.9630
   1423.03650     706.1276     581.4606   1423.03650     706.1276     581.4606
   1423.02124     705.3942     580.4402   1423.02124     705.3942     580.4402
   1423.00598     704.7489     578.9590   1423.00598     704.7489     578.9590
   1422.99072     704.4822     578.3210   1422.99072     704.4822     578.3210
   1422.97546     704.0940     577.8867   1422.97546     704.0940     577.8867
   1422.96021     704.0736     577.5262   1422.96021     704.0736     577.5262
   1422.94495     704.8449     575.8945   1422.94495     704.8449     575.8945
   1422.92969     703.6069     575.3663   1422.92969     703.6069     575.3663
   1422.91443     704.7582     574.3510   1422.91443     704.7582     574.3510
   1422.89917     702.2612     573.8890   1422.89917     702.2612     573.8890
   1422.88391     702.3888     572.7642   1422.88391     702.3888     572.7642
   1422.86865     702.2873     571.4714   1422.86865     702.2873     571.4714
   1422.85339     703.0521     571.5980   1422.85339     703.0521     571.5980
   1422.83813     701.4098     570.5532   1422.83813     701.4098     570.5532
   1422.82288     701.6565     569.6637   1422.82288     701.6565     569.6637
   1422.80762     701.3793     568.2780   1422.80762     701.3793     568.2780
   1422.79236     700.8939     568.0182   1422.79236     700.8939     568.0182
   1422.77710     701.6195     567.6932   1422.77710     701.6195     567.6932
   1422.76184     700.2357     566.2189   1422.76184     700.2357     566.2189
   1422.74658     700.8585     565.8148   1422.74658     700.8585     565.8148
   1422.73132     699.3066     564.9769   1422.73132     699.3066     564.9769
   1422.71606     700.0380     563.6514   1422.71606     700.0380     563.6514
   1422.70081     699.2529     563.2972   1422.70081     699.2529     563.2972
   1422.68555     698.2106     561.4601   1422.68555     698.2106     561.4601
   1422.67029     698.8653     560.7272   1422.67029     698.8653     560.7272
   1422.65503     698.3259     559.1245   1422.65503     698.3259     559.1245
   1422.63977     698.5455     559.1832   1422.63977     698.5455     559.1832
   1422.62451     697.8566     558.1491   1422.62451     697.8566     558.1491
   1422.60925     697.9605     557.2307   1422.60925     697.9605     557.2307
   1422.59399     696.7418     556.6241   1422.59399     696.7418     556.6241
   1422.57874     696.8409     556.0933   1422.57874     696.8409     556.0933
   1422.56348     696.0670     555.4976   1422.56348     696.0670     555.4976
   1422.54822     696.1964     554.5054   1422.54822     696.1964     554.5054
   1422.53296     695.8057     553.1107   1422.53296     695.8057     553.1107
   1422.51770     695.3148     552.1035   1422.51770     695.3148     552.1035
   1422.50244     696.0997     551.6124   1422.50244     696.0997     551.6124
   1422.48718     695.1093     550.5916   1422.48718     695.1093     550.5916
   1422.47192     695.5063     550.3112   1422.47192     695.5063     550.3112
   1422.45667     695.2286     549.4120   1422.45667     695.2286     549.4120
   1422.44141     694.8051     547.7441   1422.44141     694.8051     547.7441
   1422.42615     694.1071     546.3161   1422.42615     694.1071     546.3161
   1422.41089     694.7599     546.2398   1422.41089     694.7599     546.2398
   1422.39563     693.9811     544.8281   1422.39563     693.9811     544.8281
   1422.38037     692.2347     544.2122   1422.38037     692.2347     544.2122
   1422.36511     693.6093     543.1754   1422.36511     693.6093     543.1754
   1422.34985     693.9420     543.4442   1422.34985     693.9420     543.4442
   1422.33459     693.8650     542.3279   1422.33459     693.8650     542.3279
   1422.31934     692.8209     541.1563   1422.31934     692.8209     541.1563
   1422.30408     693.6161     539.9549   1422.30408     693.6161     539.9549
   1422.28882     693.0883     538.5815   1422.28882     693.0883     538.5815
   1422.27356     692.5233     538.4121   1422.27356     692.5233     538.4121
   1422.25830     692.3973     537.0599   1422.25830     692.3973     537.0599
   1422.24304     691.4048     536.6171   1422.24304     691.4048     536.6171
   1422.22778     692.2161     535.5836   1422.22778     692.2161     535.5836
   1422.21252     690.7946     534.3541   1422.21252     690.7946     534.3541
   1422.19727     690.5801     533.3524   1422.19727     690.5801     533.3524
   1422.18201     691.0064     532.1151   1422.18201     691.0064     532.1151
   1422.16675     690.5842     532.6428   1422.16675     690.5842     532.6428
   1422.15149     690.3220     531.3106   1422.15149     690.3220     531.3106
   1422.13623     691.2394     530.2732   1422.13623     691.2394     530.2732
   1422.12097     690.1246     528.7221   1422.12097     690.1246     528.7221
   1422.10571     690.4879     528.1664   1422.10571     690.4879     528.1664
   1422.09045     689.3734     527.1165   1422.09045     689.3734     527.1165
   1422.07520     688.3350     527.3200   1422.07520     688.3350     527.3200
   1422.05994     689.2047     525.4980   1422.05994     689.2047     525.4980
   1422.04468     689.0534     524.1464   1422.04468     689.0534     524.1464
   1422.02942     688.5551     523.0740   1422.02942     688.5551     523.0740
   1422.01416     688.0792     522.5646   1422.01416     688.0792     522.5646
   1421.99890     686.9564     521.1119   1421.99890     686.9564     521.1119
   1421.98364     687.7567     520.8376   1421.98364     687.7567     520.8376
   1421.96838     687.7650     520.2504   1421.96838     687.7650     520.2504
   1421.95312     687.7629     518.5537   1421.95312     687.7629     518.5537
   1421.93787     687.0000     517.9736   1421.93787     687.0000     517.9736
   1421.92261     687.0687     517.2000   1421.92261     687.0687     517.2000
   1421.90735     687.5126     516.7385   1421.90735     687.5126     516.7385
   1421.89209     687.2124     515.1309   1421.89209     687.2124     515.1309
   1421.87683     686.8687     514.2943   1421.87683     686.8687     514.2943
   1421.86157     686.3575     513.5380   1421.86157     686.3575     513.5380
   1421.84631     686.5842     512.0619   1421.84631     686.5842     512.0619
   1421.83105     686.0567     511.7699   1421.83105     686.0567     511.7699
   1421.81580     685.3336     510.8745   1421.81580     685.3336     510.8745
   1421.80054     685.5148     509.9738   1421.80054     685.5148     509.9738
   1421.78528     684.4456     508.4554   1421.78528     684.4456     508.4554
   1421.77002     685.8421     507.9638   1421.77002     685.8421     507.9638
   1421.75476     685.0375     507.3715   1421.75476     685.0375     507.3715
   1421.73950     684.0707     506.0923   1421.73950     684.0707     506.0923
   1421.72424     684.8360     505.2398   1421.72424     684.8360     505.2398
   1421.70898     683.2650     504.3795   1421.70898     683.2650     504.3795
   1421.69373     683.6979     502.7276   1421.69373     683.6979     502.7276
   1421.67847     683.1822     501.7231   1421.67847     683.1822     501.7231
   1421.66321     683.3222     501.1869   1421.66321     683.3222     501.1869
   1421.64795     683.1146     500.1846   1421.64795     683.1146     500.1846
   1421.63269     682.1448     499.9200   1421.63269     682.1448     499.9200
   1421.61743     683.3595     498.0925   1421.61743     683.3595     498.0925
   1421.60217     683.1188     497.1606   1421.60217     683.1188     497.1606
   1421.58691     681.6934     496.6452   1421.58691     681.6934     496.6452
   1421.57166     682.0695     495.7267   1421.57166     682.0695     495.7267
   1421.55640     680.8572     494.2626   1421.55640     680.8572     494.2626
   1421.54114     681.8725     492.8203   1421.54114     681.8725     492.8203
   1421.52588     681.1676     493.0310   1421.52588     681.1676     493.0310
   1421.51062     681.1002     491.8131   1421.51062     681.1002     491.8131
   1421.49536     682.3452     490.5223   1421.49536     682.3452     490.5223
   1421.48010     680.8586     490.4555   1421.48010     680.8586     490.4555
   1421.46484     679.3882     488.5005   1421.46484     679.3882     488.5005
   1421.44958     681.2433     487.5544   1421.44958     681.2433     487.5544
   1421.43433     680.0667     487.8113   1421.43433     680.0667     487.8113
   1421.41907     680.0447     486.6530   1421.41907     680.0447     486.6530
   1421.40381     680.2005     485.5368   1421.40381     680.2005     485.5368
   1421.38855     679.3291     484.2654   1421.38855     679.3291     484.2654
   1421.37329     678.1003     483.1101   1421.37329     678.1003     483.1101
   1421.35803     678.4816     482.2658   1421.35803     678.4816     482.2658
   1421.34277     679.1777     481.3303   1421.34277     679.1777     481.3303
   1421.32751     678.4566     481.8651   1421.32751     678.4566     481.8651
   1421.31226     677.3028     479.7202   1421.31226     677.3028     479.7202
   1421.29700     677.6154     478.5860   1421.29700     677.6154     478.5860
   1421.28174     677.6251     477.3267   1421.28174     677.6251     477.3267
   1421.26648     677.2109     476.9990   1421.26648     677.2109     476.9990
   1421.25122     676.5197     475.7330   1421.25122     676.5197     475.7330
   1421.23596     675.5025     474.5924   1421.23596     675.5025     474.5924
   1421.22070     675.6337     474.2325   1421.22070     675.6337     474.2325
   1421.20544     675.7111     472.8545   1421.20544     675.7111     472.8545
   1421.19019     675.2725     471.0685   1421.19019     675.2725     471.0685
   1421.17493     675.2833     471.9060   1421.17493     675.2833     471.9060
   1421.15967     675.0499     469.8818   1421.15967     675.0499     469.8818
   1421.14441     675.2261     468.9521   1421.14441     675.2261     468.9521
   1421.12915     674.8316     468.1210   1421.12915     674.8316     468.1210
   1421.11389     675.1982     467.0910   1421.11389     675.1982     467.0910
   1421.09863     673.1838     466.4433   1421.09863     673.1838     466.4433
   1421.08337     674.4746     465.5675   1421.08337     674.4746     465.5675
   1421.06812     674.1719     465.0161   1421.06812     674.1719     465.0161
   1421.05286     674.1686     463.5591   1421.05286     674.1686     463.5591
   1421.03760     673.7853     463.3175   1421.03760     673.7853     463.3175
   1421.02234     673.0563     461.4808   1421.02234     673.0563     461.4808
   1421.00708     672.6604     461.0687   1421.00708     672.6604     461.0687
   1420.99182     672.5950     460.2144   1420.99182     672.5950     460.2144
   1420.97656     672.3949     459.4983   1420.97656     672.3949     459.4983
   1420.96130     671.9991     457.4570   1420.96130     671.9991     457.4570
   1420.94604     671.6644     458.0785   1420.94604     671.6644     458.0785
   1420.93079     671.6840     456.4106   1420.93079     671.6840     456.4106
   1420.91553     671.6922     456.0474   1420.91553     671.6922     456.0474
   1420.90027     671.6987     454.9243   1420.90027     671.6987     454.9243
   1420.88501     671.3234     454.0573   1420.88501     671.3234     454.0573
   1420.86975     671.1384     454.0334   1420.86975     671.1384     454.0334
   1420.85449     670.5343     452.2389   1420.85449     670.5343     452.2389
   1420.83923     671.4916     451.4136   1420.83923     671.4916     451.4136
   1420.82397     670.4490     451.3099   1420.82397     670.4490     451.3099
   1420.80872     669.8259     449.5153   1420.80872     669.8259     449.5153
   1420.79346     671.0582     448.9420   1420.79346     671.0582     448.9420
   1420.77820     670.8736     448.6145   1420.77820     670.8736     448.6145
   1420.76294     670.6521     447.7507   1420.76294     670.6521     447.7507
   1420.74768     670.0519     446.9431   1420.74768     670.0519     446.9431
   1420.73242     669.6515     446.3439   1420.73242     669.6515     446.3439
   1420.71716     670.9065     446.5413   1420.71716     670.9065     446.5413
   1420.70190     671.4397     445.0348   1420.70190     671.4397     445.0348
   1420.68665     670.8104     444.6758   1420.68665     670.8104     444.6758
   1420.67139     669.8878     443.9545   1420.67139     669.8878     443.9545
   1420.65613     671.3721     442.9275   1420.65613     671.3721     442.9275
   1420.64087     670.3455     442.0693   1420.64087     670.3455     442.0693
   1420.62561     670.9635     441.4933   1420.62561     670.9635     441.4933
   1420.61035     671.4258     441.1938   1420.61035     671.4258     441.1938
   1420.59509     671.0336     440.4541   1420.59509     671.0336     440.4541
   1420.57983     671.3661     440.4282   1420.57983     671.3661     440.4282
   1420.56458     672.1311     441.0251   1420.56458     672.1311     441.0251
   1420.54932     673.4100     440.3139   1420.54932     673.4100     440.3139
   1420.53406     675.1588     440.5467   1420.53406     675.1588     440.5467
   1420.51880     675.2382     440.3622   1420.51880     675.2382     440.3622
   1420.50354     676.6169     440.5650   1420.50354     676.6169     440.5650
   1420.48828     676.5648     440.1287   1420.48828     676.5648     440.1287
   1420.47302     676.1068     439.5032   1420.47302     676.1068     439.5032
   1420.45776     676.6111     438.4284   1420.45776     676.6111     438.4284
   1420.44250     675.8945     438.0336   1420.44250     675.8945     438.0336
   1420.42725     677.3773     438.7311   1420.42725     677.3773     438.7311
   1420.41199     677.3132     438.7325   1420.41199     677.3132     438.7325
   1420.39673     679.3535     438.7115   1420.39673     679.3535     438.7115
   1420.38147     681.6064     439.4832   1420.38147     681.6064     439.4832
   1420.36621     685.1624     441.5909   1420.36621     685.1624     441.5909
   1420.35095     692.6266     445.6327   1420.35095     692.6266     445.6327
   1420.33569     709.4162     454.2981   1420.33569     709.4162     454.2981
   1420.32043     747.9822     477.7395   1420.32043     747.9822     477.7395
   1420.30518     830.4735     528.4097   1420.30518     830.4735     528.4097
   1420.28992     936.3083     593.2048   1420.28992     936.3083     593.2048
   1420.27466    1072.1616     675.1172   1420.27466    1072.1616     675.1172
   1420.25940    1203.1666     755.2101   1420.25940    1203.1666     755.2101
   1420.24414    1355.8715     849.1137   1420.24414    1355.8715     849.1137
   1420.22888    1655.2911    1034.6873   1420.22888    1655.2911    1034.6873
   1420.21362    1968.4670    1224.1384   1420.21362    1968.4670    1224.1384
   1420.19836    2014.4161    1254.1206   1420.19836    2014.4161    1254.1206
   1420.18311    1792.0626    1115.6229   1420.18311    1792.0626    1115.6229
   1420.16785    2000.4668    1244.2063   1420.16785    2000.4668    1244.2063
   1420.15259    2189.7446    1355.8379   1420.15259    2189.7446    1355.8379
   1420.13733    1975.2837    1226.0726   1420.13733    1975.2837    1226.0726
   1420.12207    1927.9806    1194.3096   1420.12207    1927.9806    1194.3096
   1420.10681    1932.0276    1197.3193   1420.10681    1932.0276    1197.3193
   1420.09155    1819.7092    1126.9330   1420.09155    1819.7092    1126.9330
   1420.07629    1575.9161     975.6130   1420.07629    1575.9161     975.6130
   1420.06104    1225.6218     759.9617   1420.06104    1225.6218     759.9617
   1420.04578     960.8016     598.5449   1420.04578     960.8016     598.5449
   1420.03052     837.6370     522.7953   1420.03052     837.6370     522.7953
   1420.01526     762.7735     476.9817   1420.01526     762.7735     476.9817
   1420.00000     729.9059     457.4258   1420.00000     729.9059     457.4258
   1419.98474     697.0380     437.8698   1419.98474     697.0380     437.8698
   1419.96948     682.4377     426.8724   1419.96948     682.4377     426.8724
   1419.95422     674.7341     420.8478   1419.95422     674.7341     420.8478
   1419.93896     669.8257     417.5316   1419.93896     669.8257     417.5316
   1419.92371     666.4778     415.2164   1419.92371     666.4778     415.2164
   1419.90845     665.9158     413.9572   1419.90845     665.9158     413.9572
   1419.89319     663.8206     412.6623   1419.89319     663.8206     412.6623
   1419.87793     663.5923     412.2021   1419.87793     663.5923     412.2021
   1419.86267     662.4061     411.9942   1419.86267     662.4061     411.9942
   1419.84741     663.0569     410.9310   1419.84741     663.0569     410.9310
   1419.83215     661.1985     409.6913   1419.83215     661.1985     409.6913
   1419.81689     661.6739     409.4709   1419.81689     661.6739     409.4709
   1419.80164     662.6302     409.1987   1419.80164     662.6302     409.1987
   1419.78638     662.0870     408.7404   1419.78638     662.0870     408.7404
   1419.77112     661.4350     408.3655   1419.77112     661.4350     408.3655
   1419.75586     661.2584     407.5243   1419.75586     661.2584     407.5243
   1419.74060     661.5576     407.9184   1419.74060     661.5576     407.9184
   1419.72534     662.1335     408.1866   1419.72534     662.1335     408.1866
   1419.71008     662.3032     406.9564   1419.71008     662.3032     406.9564
   1419.69482     662.5184     406.8885   1419.69482     662.5184     406.8885
   1419.67957     662.3179     406.1399   1419.67957     662.3179     406.1399
   1419.66431     661.4562     405.7359   1419.66431     661.4562     405.7359
   1419.64905     661.6075     406.2289   1419.64905     661.6075     406.2289
   1419.63379     661.9934     405.0978   1419.63379     661.9934     405.0978
   1419.61853     662.0007     405.1998   1419.61853     662.0007     405.1998
   1419.60327     662.1880     405.5721   1419.60327     662.1880     405.5721
   1419.58801     662.2579     405.3299   1419.58801     662.2579     405.3299
   1419.57275     662.5239     405.0988   1419.57275     662.5239     405.0988
   1419.55750     663.3537     405.1275   1419.55750     663.3537     405.1275
   1419.54224     662.6719     404.8216   1419.54224     662.6719     404.8216
   1419.52698     662.5898     404.3843   1419.52698     662.5898     404.3843
   1419.51172     663.7749     404.2303   1419.51172     663.7749     404.2303
   1419.49646     664.0101     404.5837   1419.49646     664.0101     404.5837
   1419.48120     664.6859     404.6803   1419.48120     664.6859     404.6803
   1419.46594     664.8770     404.4114   1419.46594     664.8770     404.4114
   1419.45068     664.6412     404.5444   1419.45068     664.6412     404.5444
   1419.43542     664.4548     404.8010   1419.43542     664.4548     404.8010
   1419.42017     665.4332     404.0046   1419.42017     665.4332     404.0046
   1419.40491     665.4003     404.8162   1419.40491     665.4003     404.8162
   1419.38965     666.8912     403.7795   1419.38965     666.8912     403.7795
   1419.37439     665.9377     404.1967   1419.37439     665.9377     404.1967
   1419.35913     666.6357     404.2187   1419.35913     666.6357     404.2187
   1419.34387     667.1885     404.2571   1419.34387     667.1885     404.2571
   1419.32861     666.7409     404.6141   1419.32861     666.7409     404.6141
   1419.31335     667.5319     404.3805   1419.31335     667.5319     404.3805
   1419.29810     667.6863     404.6166   1419.29810     667.6863     404.6166
   1419.28284     667.4580     405.0915   1419.28284     667.4580     405.0915
   1419.26758     669.7136     405.3352   1419.26758     669.7136     405.3352
   1419.25232     668.3580     404.6083   1419.25232     668.3580     404.6083
   1419.23706     668.5942     404.6216   1419.23706     668.5942     404.6216
   1419.22180     669.4317     404.4801   1419.22180     669.4317     404.4801
   1419.20654     669.6909     405.1085   1419.20654     669.6909     405.1085
   1419.19128     669.6094     405.9197   1419.19128     669.6094     405.9197
   1419.17603     670.5727     404.5731   1419.17603     670.5727     404.5731
   1419.16077     671.4422     405.0727   1419.16077     671.4422     405.0727
   1419.14551     672.1562     405.7297   1419.14551     672.1562     405.7297
   1419.13025     672.4431     406.2744   1419.13025     672.4431     406.2744
   1419.11499     672.1326     406.7768   1419.11499     672.1326     406.7768
   1419.09973     673.0107     405.9825   1419.09973     673.0107     405.9825
   1419.08447     673.1151     406.2136   1419.08447     673.1151     406.2136
   1419.06921     673.2106     406.4787   1419.06921     673.2106     406.4787
   1419.05396     674.1155     407.0245   1419.05396     674.1155     407.0245
   1419.03870     675.4020     407.6820   1419.03870     675.4020     407.6820
   1419.02344     674.6548     408.0121   1419.02344     674.6548     408.0121
   1419.00818     675.7087     407.2305   1419.00818     675.7087     407.2305
   1418.99292     675.8713     408.1576   1418.99292     675.8713     408.1576
   1418.97766     676.4707     408.6239   1418.97766     676.4707     408.6239
   1418.96240     677.8401     409.7204   1418.96240     677.8401     409.7204
   1418.94714     677.2646     409.3781   1418.94714     677.2646     409.3781
   1418.93188     678.3821     409.6157   1418.93188     678.3821     409.6157
   1418.91663     677.6200     410.3000   1418.91663     677.6200     410.3000
   1418.90137     679.3691     410.0312   1418.90137     679.3691     410.0312
   1418.88611     680.8868     410.5014   1418.88611     680.8868     410.5014
   1418.87085     679.7798     411.2277   1418.87085     679.7798     411.2277
   1418.85559     680.3018     411.7481   1418.85559     680.3018     411.7481
   1418.84033     682.1843     412.6396   1418.84033     682.1843     412.6396
   1418.82507     682.9749     412.4747   1418.82507     682.9749     412.4747
   1418.80981     683.0494     413.2694   1418.80981     683.0494     413.2694
   1418.79456     682.7208     413.5358   1418.79456     682.7208     413.5358
   1418.77930     683.2360     413.6642   1418.77930     683.2360     413.6642
   1418.76404     685.8189     414.4678   1418.76404     685.8189     414.4678
   1418.74878     685.0911     415.0893   1418.74878     685.0911     415.0893
   1418.73352     685.6288     415.7846   1418.73352     685.6288     415.7846
   1418.71826     687.9703     416.1908   1418.71826     687.9703     416.1908
   1418.70300     687.2057     415.8806   1418.70300     687.2057     415.8806
   1418.68774     686.9748     417.2081   1418.68774     686.9748     417.2081
   1418.67249     687.4435     417.6389   1418.67249     687.4435     417.6389
   1418.65723     687.9905     418.1046   1418.65723     687.9905     418.1046
   1418.64197     690.0389     418.6690   1418.64197     690.0389     418.6690
   1418.62671     690.4803     419.9247   1418.62671     690.4803     419.9247
   1418.61145     692.1878     420.2437   1418.61145     692.1878     420.2437
   1418.59619     691.2692     420.5570   1418.59619     691.2692     420.5570
   1418.58093     692.6633     421.1885   1418.58093     692.6633     421.1885
   1418.56567     693.6272     421.1494   1418.56567     693.6272     421.1494
   1418.55042     692.5641     422.8931   1418.55042     692.5641     422.8931
   1418.53516     694.9370     422.3775   1418.53516     694.9370     422.3775
   1418.51990     695.2663     424.0243   1418.51990     695.2663     424.0243
   1418.50464     696.3823     424.6128   1418.50464     696.3823     424.6128
   1418.48938     697.0070     425.9005   1418.48938     697.0070     425.9005
   1418.47412     697.4332     425.9275   1418.47412     697.4332     425.9275
   1418.45886     698.6663     427.3632   1418.45886     698.6663     427.3632
   1418.44360     700.1255     427.6084   1418.44360     700.1255     427.6084
   1418.42834     699.8051     427.6968   1418.42834     699.8051     427.6968
   1418.41309     700.7596     429.0266   1418.41309     700.7596     429.0266
   1418.39783     701.1295     429.4372   1418.39783     701.1295     429.4372
   1418.38257     701.3886     430.7391   1418.38257     701.3886     430.7391
   1418.36731     703.1177     430.6463   1418.36731     703.1177     430.6463
   1418.35205     703.2128     432.4199   1418.35205     703.2128     432.4199
   1418.33679     704.1328     432.3413   1418.33679     704.1328     432.3413
   1418.32153     705.7070     433.7324   1418.32153     705.7070     433.7324
   1418.30627     705.5946     434.2242   1418.30627     705.5946     434.2242
   1418.29102     707.8105     435.5934   1418.29102     707.8105     435.5934
   1418.27576     707.0372     435.6627   1418.27576     707.0372     435.6627
   1418.26050     707.5414     437.4894   1418.26050     707.5414     437.4894
   1418.24524     708.6250     437.6643   1418.24524     708.6250     437.6643
   1418.22998     709.8145     439.7950   1418.22998     709.8145     439.7950
   1418.21472     710.6835     438.9463   1418.21472     710.6835     438.9463
   1418.19946     710.9645     440.4997   1418.19946     710.9645     440.4997
   1418.18420     712.0762     441.6349   1418.18420     712.0762     441.6349
   1418.16895     712.0283     442.0451   1418.16895     712.0283     442.0451
   1418.15369     714.2390     443.8238   1418.15369     714.2390     443.8238
   1418.13843     714.6038     444.6646   1418.13843     714.6038     444.6646
   1418.12317     715.9670     445.9176   1418.12317     715.9670     445.9176
   1418.10791     717.7758     446.8466   1418.10791     717.7758     446.8466
   1418.09265     716.7627     447.7062   1418.09265     716.7627     447.7062
   1418.07739     717.5463     447.9225   1418.07739     717.5463     447.9225
   1418.06213     718.9186     448.5233   1418.06213     718.9186     448.5233
   1418.04688     719.3431     450.1664   1418.04688     719.3431     450.1664
   1418.03162     721.1706     451.8069   1418.03162     721.1706     451.8069
   1418.01636     720.5291     452.0884   1418.01636     720.5291     452.0884
   1418.00110     720.9741     453.8953   1418.00110     720.9741     453.8953
   1417.98584     723.4758     454.2372   1417.98584     723.4758     454.2372
   1417.97058     725.2709     455.3324   1417.97058     725.2709     455.3324
   1417.95532     725.5139     456.7720   1417.95532     725.5139     456.7720
   1417.94006     726.7095     457.5314   1417.94006     726.7095     457.5314
   1417.92480     727.4595     458.8438   1417.92480     727.4595     458.8438
   1417.90955     728.4061     459.9950   1417.90955     728.4061     459.9950
   1417.89429     728.9682     460.9291   1417.89429     728.9682     460.9291
   1417.87903     728.8661     462.0197   1417.87903     728.8661     462.0197
   1417.86377     731.3501     463.3617   1417.86377     731.3501     463.3617
   1417.84851     731.6369     463.9734   1417.84851     731.6369     463.9734
   1417.83325     732.8738     465.2165   1417.83325     732.8738     465.2165
   1417.81799     732.7689     466.4039   1417.81799     732.7689     466.4039
   1417.80273     735.3136     468.0454   1417.80273     735.3136     468.0454
   1417.78748     735.1210     468.7244   1417.78748     735.1210     468.7244
   1417.77222     735.4504     469.2896   1417.77222     735.4504     469.2896
   1417.75696     737.0275     470.8700   1417.75696     737.0275     470.8700
   1417.74170     737.1379     472.2369   1417.74170     737.1379     472.2369
   1417.72644     738.4119     473.1948   1417.72644     738.4119     473.1948
   1417.71118     740.8647     473.9121   1417.71118     740.8647     473.9121
   1417.69592     741.1841     475.8454   1417.69592     741.1841     475.8454
   1417.68066     741.3388     476.3933   1417.68066     741.3388     476.3933
   1417.66541     742.3125     477.9739   1417.66541     742.3125     477.9739
   1417.65015     743.1274     478.2224   1417.65015     743.1274     478.2224
   1417.63489     745.1823     480.2075   1417.63489     745.1823     480.2075
   1417.61963     744.7702     481.8652   1417.61963     744.7702     481.8652
   1417.60437     746.2579     483.2289   1417.60437     746.2579     483.2289
   1417.58911     747.0474     484.3295   1417.58911     747.0474     484.3295
   1417.57385     748.2612     486.0098   1417.57385     748.2612     486.0098
   1417.55859     749.2019     485.8031   1417.55859     749.2019     485.8031
   1417.54333     749.6431     487.3991   1417.54333     749.6431     487.3991
   1417.52808     750.3956     488.8438   1417.52808     750.3956     488.8438
   1417.51282     750.2094     489.1641   1417.51282     750.2094     489.1641
   1417.49756     752.6703     490.9120   1417.49756     752.6703     490.9120
   1417.48230     753.1205     492.6615   1417.48230     753.1205     492.6615
   1417.46704     754.1318     493.8813   1417.46704     754.1318     493.8813
   1417.45178     756.1234     494.8508   1417.45178     756.1234     494.8508
   1417.43652     755.0851     496.3825   1417.43652     755.0851     496.3825
   1417.42126     756.1851     496.5215   1417.42126     756.1851     496.5215
   1417.40601     756.8271     498.6695   1417.40601     756.8271     498.6695
   1417.39075     758.3300     498.9182   1417.39075     758.3300     498.9182
   1417.37549     758.5687     500.7552   1417.37549     758.5687     500.7552
   1417.36023     760.1705     502.0450   1417.36023     760.1705     502.0450
   1417.34497     760.1729     502.7803   1417.34497     760.1729     502.7803
   1417.32971     760.5518     503.7296   1417.32971     760.5518     503.7296
   1417.31445     762.0206     505.1576   1417.31445     762.0206     505.1576
   1417.29919     762.8044     505.6672   1417.29919     762.8044     505.6672
   1417.28394     762.9028     508.2036   1417.28394     762.9028     508.2036
   1417.26868     764.9975     508.2025   1417.26868     764.9975     508.2025
   1417.25342     765.1245     510.1468   1417.25342     765.1245     510.1468
   1417.23816     765.2123     510.7264   1417.23816     765.2123     510.7264
   1417.22290     768.5095     513.0170   1417.22290     768.5095     513.0170
   1417.20764     767.2737     513.9064   1417.20764     767.2737     513.9064
   1417.19238     767.3687     514.2462   1417.19238     767.3687     514.2462
   1417.17712     767.9729     515.1626   1417.17712     767.9729     515.1626
   1417.16187     768.5469     517.8693   1417.16187     768.5469     517.8693
   1417.14661     769.8407     517.8989   1417.14661     769.8407     517.8989
   1417.13135     769.0214     519.5463   1417.13135     769.0214     519.5463
   1417.11609     772.4514     520.1962   1417.11609     772.4514     520.1962
   1417.10083     771.0368     521.2321   1417.10083     771.0368     521.2321
   1417.08557     774.4017     522.2584   1417.08557     774.4017     522.2584
   1417.07031     773.7990     522.6832   1417.07031     773.7990     522.6832
   1417.05505     773.1721     524.2651   1417.05505     773.1721     524.2651
   1417.03979     774.5583     524.6513   1417.03979     774.5583     524.6513
   1417.02454     774.9329     526.0906   1417.02454     774.9329     526.0906
   1417.00928     775.4730     527.3956   1417.00928     775.4730     527.3956
   1416.99402     775.2535     528.3922   1416.99402     775.2535     528.3922
   1416.97876     776.0159     529.0744   1416.97876     776.0159     529.0744
   1416.96350     777.6602     529.7581   1416.96350     777.6602     529.7581
   1416.94824     777.5541     531.0895   1416.94824     777.5541     531.0895
   1416.93298     779.9615     531.9334   1416.93298     779.9615     531.9334
   1416.91772     779.1260     531.7766   1416.91772     779.1260     531.7766
   1416.90247     779.0763     532.5441   1416.90247     779.0763     532.5441
   1416.88721     779.4150     534.2737   1416.88721     779.4150     534.2737
   1416.87195     780.2455     534.7245   1416.87195     780.2455     534.7245
   1416.85669     780.2958     534.7037   1416.85669     780.2958     534.7037
   1416.84143     781.5241     537.1594   1416.84143     781.5241     537.1594
   1416.82617     781.3661     536.4935   1416.82617     781.3661     536.4935
   1416.81091     781.5561     538.0624   1416.81091     781.5561     538.0624
   1416.79565     781.9881     538.4001   1416.79565     781.9881     538.4001
   1416.78040     783.5865     538.6628   1416.78040     783.5865     538.6628
   1416.76514     782.3428     538.8611   1416.76514     782.3428     538.8611
   1416.74988     781.2489     540.3123   1416.74988     781.2489     540.3123
   1416.73462     782.8287     540.7662   1416.73462     782.8287     540.7662
   1416.71936     781.4390     541.1351   1416.71936     781.4390     541.1351
   1416.70410     783.6228     541.3842   1416.70410     783.6228     541.3842
   1416.68884     782.6725     541.9365   1416.68884     782.6725     541.9365
   1416.67358     784.3127     543.3183   1416.67358     784.3127     543.3183
   1416.65833     783.9565     543.6208   1416.65833     783.9565     543.6208
   1416.64307     783.8037     542.9998   1416.64307     783.8037     542.9998
   1416.62781     783.3331     543.9309   1416.62781     783.3331     543.9309
   1416.61255     784.6834     544.4857   1416.61255     784.6834     544.4857
   1416.59729     784.7241     544.9491   1416.59729     784.7241     544.9491
   1416.58203     784.1490     545.5646   1416.58203     784.1490     545.5646
   1416.56677     784.3045     545.5095   1416.56677     784.3045     545.5095
   1416.55151     784.9100     545.7143   1416.55151     784.9100     545.7143
   1416.53625     783.6370     546.2375   1416.53625     783.6370     546.2375
   1416.52100     785.3160     544.7501   1416.52100     785.3160     544.7501
   1416.50574     784.3635     546.4155   1416.50574     784.3635     546.4155
   1416.49048     784.8084     546.1476   1416.49048     784.8084     546.1476
   1416.47522     782.3888     546.7068   1416.47522     782.3888     546.7068
   1416.45996     784.2018     546.8818   1416.45996     784.2018     546.8818
   1416.44470     783.7170     546.0277   1416.44470     783.7170     546.0277
   1416.42944     783.3549     546.2229   1416.42944     783.3549     546.2229
   1416.41418     784.4781     546.2349   1416.41418     784.4781     546.2349
   1416.39893     783.4189     546.3831   1416.39893     783.4189     546.3831
   1416.38367     782.9762     546.4371   1416.38367     782.9762     546.4371
   1416.36841     783.0101     546.4569   1416.36841     783.0101     546.4569
   1416.35315     783.4885     546.1431   1416.35315     783.4885     546.1431
   1416.33789     781.0123     546.4095   1416.33789     781.0123     546.4095
   1416.32263     782.2109     545.7540   1416.32263     782.2109     545.7540
   1416.30737     781.4914     545.4936   1416.30737     781.4914     545.4936
   1416.29211     781.1692     544.9600   1416.29211     781.1692     544.9600
   1416.27686     782.5624     545.1580   1416.27686     782.5624     545.1580
   1416.26160     780.7405     544.6699   1416.26160     780.7405     544.6699
   1416.24634     780.8301     544.6129   1416.24634     780.8301     544.6129
   1416.23108     778.5748     544.3605   1416.23108     778.5748     544.3605
   1416.21582     780.3459     544.5439   1416.21582     780.3459     544.5439
   1416.20056     780.9571     543.3105   1416.20056     780.9571     543.3105
   1416.18530     778.9971     543.0306   1416.18530     778.9971     543.0306
   1416.17004     780.3072     543.6257   1416.17004     780.3072     543.6257
   1416.15479     777.9431     542.9431   1416.15479     777.9431     542.9431
   1416.13953     777.8300     541.2620   1416.13953     777.8300     541.2620
   1416.12427     777.2504     541.3572   1416.12427     777.2504     541.3572
   1416.10901     777.1452     541.3839   1416.10901     777.1452     541.3839
   1416.09375     777.0532     540.7867   1416.09375     777.0532     540.7867
   1416.07849     777.0593     539.8114   1416.07849     777.0593     539.8114
   1416.06323     776.2062     539.5515   1416.06323     776.2062     539.5515
   1416.04797     776.3073     539.4899   1416.04797     776.3073     539.4899
   1416.03271     775.8622     537.6360   1416.03271     775.8622     537.6360
   1416.01746     773.2822     537.6719   1416.01746     773.2822     537.6719
   1416.00220     772.2964     537.5288   1416.00220     772.2964     537.5288
   1415.98694     772.6305     537.3575   1415.98694     772.6305     537.3575
   1415.97168     772.2409     536.9350   1415.97168     772.2409     536.9350
   1415.95642     771.1369     535.7070   1415.95642     771.1369     535.7070
   1415.94116     770.0995     534.7999   1415.94116     770.0995     534.7999
   1415.92590     771.3781     534.5547   1415.92590     771.3781     534.5547
   1415.91064     769.9835     534.2759   1415.91064     769.9835     534.2759
   1415.89539     770.0396     533.2454   1415.89539     770.0396     533.2454
   1415.88013     769.0974     532.3212   1415.88013     769.0974     532.3212
   1415.86487     766.9416     531.9047   1415.86487     766.9416     531.9047
   1415.84961     767.3741     530.7650   1415.84961     767.3741     530.7650
   1415.83435     766.9722     530.8103   1415.83435     766.9722     530.8103
   1415.81909     767.2614     530.0082   1415.81909     767.2614     530.0082
   1415.80383     766.7328     529.3422   1415.80383     766.7328     529.3422
   1415.78857     763.8870     528.5997   1415.78857     763.8870     528.5997
   1415.77332     764.1211     528.0286   1415.77332     764.1211     528.0286
   1415.75806     763.0643     527.0264   1415.75806     763.0643     527.0264
   1415.74280     762.1627     525.9203   1415.74280     762.1627     525.9203
   1415.72754     761.3853     525.8840   1415.72754     761.3853     525.8840
   1415.71228     760.8139     524.1359   1415.71228     760.8139     524.1359
   1415.69702     759.6293     523.7019   1415.69702     759.6293     523.7019
   1415.68176     759.8542     523.2878   1415.68176     759.8542     523.2878
   1415.66650     759.5606     522.8085   1415.66650     759.5606     522.8085
   1415.65125     756.9333     521.5872   1415.65125     756.9333     521.5872
   1415.63599     756.5026     520.4737   1415.63599     756.5026     520.4737
   1415.62073     754.9897     519.3624   1415.62073     754.9897     519.3624
   1415.60547     756.7603     519.9233   1415.60547     756.7603     519.9233
   1415.59021     754.1005     517.9333   1415.59021     754.1005     517.9333
   1415.57495     753.2955     517.1915   1415.57495     753.2955     517.1915
   1415.55969     752.7900     516.2095   1415.55969     752.7900     516.2095
   1415.54443     751.2532     515.6706   1415.54443     751.2532     515.6706
   1415.52917     750.2377     514.1440   1415.52917     750.2377     514.1440
   1415.51392     749.2463     513.6678   1415.51392     749.2463     513.6678
   1415.49866     748.7385     513.3928   1415.49866     748.7385     513.3928
   1415.48340     748.3958     512.3454   1415.48340     748.3958     512.3454
   1415.46814     746.1088     510.9543   1415.46814     746.1088     510.9543
   1415.45288     746.8870     510.5317   1415.45288     746.8870     510.5317
   1415.43762     743.9149     509.5714   1415.43762     743.9149     509.5714
   1415.42236     743.4961     509.3562   1415.42236     743.4961     509.3562
   1415.40710     742.0204     506.6356   1415.40710     742.0204     506.6356
   1415.39185     741.6709     505.6983   1415.39185     741.6709     505.6983
   1415.37659     739.5615     505.6270   1415.37659     739.5615     505.6270
   1415.36133     739.7765     504.0388   1415.36133     739.7765     504.0388
   1415.34607     738.1980     503.4514   1415.34607     738.1980     503.4514
   1415.33081     737.7356     503.0708   1415.33081     737.7356     503.0708
   1415.31555     735.7556     501.9431   1415.31555     735.7556     501.9431
   1415.30029     735.9794     500.3056   1415.30029     735.9794     500.3056
   1415.28503     733.4886     499.7885   1415.28503     733.4886     499.7885
   1415.26978     731.7692     499.2334   1415.26978     731.7692     499.2334
   1415.25452     730.8174     497.6049   1415.25452     730.8174     497.6049
   1415.23926     730.6852     496.3751   1415.23926     730.6852     496.3751
   1415.22400     729.0784     495.7596   1415.22400     729.0784     495.7596
   1415.20874     726.9296     494.4987   1415.20874     726.9296     494.4987
   1415.19348     725.4888     493.4432   1415.19348     725.4888     493.4432
   1415.17822     725.6414     493.6045   1415.17822     725.6414     493.6045
   1415.16296     723.9548     491.7729   1415.16296     723.9548     491.7729
   1415.14771     722.4027     490.2263   1415.14771     722.4027     490.2263
   1415.13245     721.1935     489.2170   1415.13245     721.1935     489.2170
   1415.11719     719.3419     489.0339   1415.11719     719.3419     489.0339
   1415.10193     718.1827     487.1965   1415.10193     718.1827     487.1965
   1415.08667     715.7413     485.6753   1415.08667     715.7413     485.6753
   1415.07141     715.8938     484.4133   1415.07141     715.8938     484.4133
   1415.05615     713.6193     483.1618   1415.05615     713.6193     483.1618
   1415.04089     713.1907     482.0760   1415.04089     713.1907     482.0760
   1415.02563     710.8599     480.9977   1415.02563     710.8599     480.9977
   1415.01038     710.4297     480.2626   1415.01038     710.4297     480.2626
   1414.99512     708.3317     478.3976   1414.99512     708.3317     478.3976
   1414.97986     706.7859     477.1608   1414.97986     706.7859     477.1608
   1414.96460     705.2798     476.6706   1414.96460     705.2798     476.6706
   1414.94934     702.2863     475.5984   1414.94934     702.2863     475.5984
   1414.93408     702.3091     474.2937   1414.93408     702.3091     474.2937
   1414.91882     699.0179     472.1780   1414.91882     699.0179     472.1780
   1414.90356     697.3096     471.9424   1414.90356     697.3096     471.9424
   1414.88831     696.7272     470.4514   1414.88831     696.7272     470.4514
   1414.87305     695.3773     469.2027   1414.87305     695.3773     469.2027
   1414.85779     693.2517     467.7641   1414.85779     693.2517     467.7641
   1414.84253     691.5907     465.9887   1414.84253     691.5907     465.9887
   1414.82727     690.4810     465.2089   1414.82727     690.4810     465.2089
   1414.81201     688.5844     463.8008   1414.81201     688.5844     463.8008
   1414.79675     686.3461     462.3168   1414.79675     686.3461     462.3168
   1414.78149     685.0155     461.1003   1414.78149     685.0155     461.1003
   1414.76624     682.0680     459.6703   1414.76624     682.0680     459.6703
   1414.75098     680.6962     458.8138   1414.75098     680.6962     458.8138
   1414.73572     680.1237     457.4704   1414.73572     680.1237     457.4704
   1414.72046     678.1548     455.0040   1414.72046     678.1548     455.0040
   1414.70520     675.9620     453.9149   1414.70520     675.9620     453.9149
   1414.68994     673.9960     453.2444   1414.68994     673.9960     453.2444
   1414.67468     671.7579     451.5894   1414.67468     671.7579     451.5894
   1414.65942     670.2919     449.9324   1414.65942     670.2919     449.9324
   1414.64417     667.5292     449.5446   1414.64417     667.5292     449.5446
   1414.62891     666.8680     447.2729   1414.62891     666.8680     447.2729
   1414.61365     663.6168     446.6236   1414.61365     663.6168     446.6236
   1414.59839     660.6901     444.3714   1414.59839     660.6901     444.3714
   1414.58313     659.3901     443.7316   1414.58313     659.3901     443.7316
   1414.56787     658.0980     441.5902   1414.56787     658.0980     441.5902
   1414.55261     655.9072     440.2013   1414.55261     655.9072     440.2013
   1414.53735     654.0455     438.9785   1414.53735     654.0455     438.9785
   1414.52209     651.2626     437.5319   1414.52209     651.2626     437.5319
   1414.50684     650.4618     435.7169   1414.50684     650.4618     435.7169
   1414.49158     647.4045     434.9227   1414.49158     647.4045     434.9227
   1414.47632     644.5347     433.5525   1414.47632     644.5347     433.5525
   1414.46106     642.5865     431.4431   1414.46106     642.5865     431.4431
   1414.44580     640.9702     429.5714   1414.44580     640.9702     429.5714
   1414.43054     638.8612     428.6458   1414.43054     638.8612     428.6458
   1414.41528     636.8223     427.2563   1414.41528     636.8223     427.2563
   1414.40002     633.3516     425.2565   1414.40002     633.3516     425.2565
   1414.38477     631.4070     423.5897   1414.38477     631.4070     423.5897
   1414.36951     630.4542     422.1841   1414.36951     630.4542     422.1841
   1414.35425     626.8055     420.7592   1414.35425     626.8055     420.7592
   1414.33899     625.0930     419.2502   1414.33899     625.0930     419.2502
   1414.32373     621.8065     418.0467   1414.32373     621.8065     418.0467
   1414.30847     621.0939     415.8563   1414.30847     621.0939     415.8563
   1414.29321     617.5575     414.3895   1414.29321     617.5575     414.3895
   1414.27795     615.2625     412.1805   1414.27795     615.2625     412.1805
   1414.26270     613.6375     411.1086   1414.26270     613.6375     411.1086
   1414.24744     611.1928     409.6990   1414.24744     611.1928     409.6990
   1414.23218     608.2264     408.2056   1414.23218     608.2264     408.2056
   1414.21692     605.4263     406.8180   1414.21692     605.4263     406.8180
   1414.20166     603.1071     404.8659   1414.20166     603.1071     404.8659
   1414.18640     599.9238     403.0114   1414.18640     599.9238     403.0114
   1414.17114     597.6837     401.8808   1414.17114     597.6837     401.8808
   1414.15588     595.3168     400.2524   1414.15588     595.3168     400.2524
   1414.14062     593.3083     398.2032   1414.14062     593.3083     398.2032
   1414.12537     590.6789     397.0656   1414.12537     590.6789     397.0656
   1414.11011     587.9219     395.1314   1414.11011     587.9219     395.1314
   1414.09485     585.8785     394.4585   1414.09485     585.8785     394.4585
   1414.07959     583.0268     392.0108   1414.07959     583.0268     392.0108
   1414.06433     580.2308     390.1537   1414.06433     580.2308     390.1537
   1414.04907     576.8003     388.2983   1414.04907     576.8003     388.2983
   1414.03381     574.7969     387.2281   1414.03381     574.7969     387.2281
   1414.01855     572.6216     385.6286   1414.01855     572.6216     385.6286
   1414.00330     586.9020     387.6372   1414.00330     586.9020     387.6372
   1413.98804     568.1823     382.0736   1413.98804     568.1823     382.0736
   1413.97278     564.8112     380.3887   1413.97278     564.8112     380.3887
   1413.95752     561.5385     378.7799   1413.95752     561.5385     378.7799
   1413.94226     559.0052     376.8784   1413.94226     559.0052     376.8784
   1413.92700     556.4379     375.5256   1413.92700     556.4379     375.5256
   1413.91174     553.7183     372.8164   1413.91174     553.7183     372.8164
   1413.89648     552.0110     371.3114   1413.89648     552.0110     371.3114
   1413.88123     547.4464     369.8533   1413.88123     547.4464     369.8533
   1413.86597     545.8973     368.2648   1413.86597     545.8973     368.2648
   1413.85071     544.0165     366.7621   1413.85071     544.0165     366.7621
   1413.83545     540.1485     365.2381   1413.83545     540.1485     365.2381
   1413.82019     537.3057     363.3247   1413.82019     537.3057     363.3247
   1413.80493     534.5336     361.4781   1413.80493     534.5336     361.4781
   1413.78967     531.2052     359.9913   1413.78967     531.2052     359.9913
   1413.77441     528.6459     358.2510   1413.77441     528.6459     358.2510
   1413.75916     526.6680     356.9256   1413.75916     526.6680     356.9256
   1413.74390     524.0209     354.7920   1413.74390     524.0209     354.7920
   1413.72864     520.4179     353.0836   1413.72864     520.4179     353.0836
   1413.71338     517.3434     351.1794   1413.71338     517.3434     351.1794
   1413.69812     515.2350     349.7653   1413.69812     515.2350     349.7653
   1413.68286     513.1234     348.2077   1413.68286     513.1234     348.2077
   1413.66760     509.7785     346.2032   1413.66760     509.7785     346.2032
   1413.65234     507.0600     344.5417   1413.65234     507.0600     344.5417
   1413.63708     504.7149     342.8758   1413.63708     504.7149     342.8758
   1413.62183     501.8683     340.8857   1413.62183     501.8683     340.8857
   1413.60657     498.9579     339.7443   1413.60657     498.9579     339.7443
   1413.59131     496.3389     337.8110   1413.59131     496.3389     337.8110
   1413.57605     493.2688     336.7610   1413.57605     493.2688     336.7610
   1413.56079     491.2343     334.8617   1413.56079     491.2343     334.8617
   1413.54553     488.3778     333.7084   1413.54553     488.3778     333.7084
   1413.53027     485.9545     331.3005   1413.53027     485.9545     331.3005
   1413.51501     482.3595     329.9662   1413.51501     482.3595     329.9662
   1413.49976     480.2673     327.9425   1413.49976     480.2673     327.9425
   1413.48450     477.6890     326.4459   1413.48450     477.6890     326.4459
   1413.46924     475.2538     325.1606   1413.46924     475.2538     325.1606
   1413.45398     472.4478     323.4351   1413.45398     472.4478     323.4351
   1413.43872     468.9384     321.7565   1413.43872     468.9384     321.7565
   1413.42346     466.4052     320.5278   1413.42346     466.4052     320.5278
   1413.40820     464.0248     319.1001   1413.40820     464.0248     319.1001
   1413.39294     461.2770     316.9951   1413.39294     461.2770     316.9951
   1413.37769     459.4858     315.2334   1413.37769     459.4858     315.2334
   1413.36243     457.1728     313.6763   1413.36243     457.1728     313.6763
   1413.34717     453.5363     312.1260   1413.34717     453.5363     312.1260
   1413.33191     450.9773     311.0521   1413.33191     450.9773     311.0521
   1413.31665     448.9535     309.8227   1413.31665     448.9535     309.8227
   1413.30139     445.7185     308.1965   1413.30139     445.7185     308.1965
   1413.28613     443.9987     306.6372   1413.28613     443.9987     306.6372
   1413.27087     440.9660     304.9647   1413.27087     440.9660     304.9647
   1413.25562     439.4796     303.7021   1413.25562     439.4796     303.7021
   1413.24036     436.6446     302.1930   1413.24036     436.6446     302.1930
   1413.22510     434.8227     300.6071   1413.22510     434.8227     300.6071
   1413.20984     432.5213     299.8235   1413.20984     432.5213     299.8235
   1413.19458     429.3905     298.3641   1413.19458     429.3905     298.3641
   1413.17932     427.4087     296.4649   1413.17932     427.4087     296.4649
   1413.16406     425.4464     295.5335   1413.16406     425.4464     295.5335
   1413.14880     422.9395     294.0760   1413.14880     422.9395     294.0760
   1413.13354     421.1651     292.6895   1413.13354     421.1651     292.6895
   1413.11829     419.1199     291.6794   1413.11829     419.1199     291.6794
   1413.10303     416.2878     290.2845   1413.10303     416.2878     290.2845
   1413.08777     413.7881     289.0727   1413.08777     413.7881     289.0727
   1413.07251     412.5526     288.2771   1413.07251     412.5526     288.2771
   1413.05725     410.0751     286.7365   1413.05725     410.0751     286.7365
   1413.04199     408.3213     285.8341   1413.04199     408.3213     285.8341
   1413.02673     406.2122     283.9245   1413.02673     406.2122     283.9245
   1413.01147     403.6931     282.9557   1413.01147     403.6931     282.9557
   1412.99622     402.4734     282.5601   1412.99622     402.4734     282.5601
   1412.98096     399.6886     281.1180   1412.98096     399.6886     281.1180
   1412.96570     398.2825     279.5839   1412.96570     398.2825     279.5839
   1412.95044     396.7880     279.3519   1412.95044     396.7880     279.3519
   1412.93518     394.7727     277.7323   1412.93518     394.7727     277.7323
   1412.91992     392.6853     276.5789   1412.91992     392.6853     276.5789
   1412.90466     391.2648     276.2994   1412.90466     391.2648     276.2994
   1412.88940     389.9750     275.3511   1412.88940     389.9750     275.3511
   1412.87415     387.9261     274.0569   1412.87415     387.9261     274.0569
   1412.85889     386.3727     273.3782   1412.85889     386.3727     273.3782
   1412.84363     384.2235     272.8706   1412.84363     384.2235     272.8706
   1412.82837     382.9648     271.1736   1412.82837     382.9648     271.1736
   1412.81311     382.0558     270.9671   1412.81311     382.0558     270.9671
   1412.79785     380.4691     270.5607   1412.79785     380.4691     270.5607
   1412.78259     379.4266     269.7671   1412.78259     379.4266     269.7671
   1412.76733     377.5215     268.7842   1412.76733     377.5215     268.7842
   1412.75208     376.1031     268.0997   1412.75208     376.1031     268.0997
   1412.73682     375.2948     267.4174   1412.73682     375.2948     267.4174
   1412.72156     374.1510     266.8120   1412.72156     374.1510     266.8120
   1412.70630     372.2466     266.3937   1412.70630     372.2466     266.3937
   1412.69104     371.6526     265.9655   1412.69104     371.6526     265.9655
   1412.67578     370.7409     265.5149   1412.67578     370.7409     265.5149
   1412.66052     369.6118     264.7595   1412.66052     369.6118     264.7595
   1412.64526     368.7361     264.9254   1412.64526     368.7361     264.9254
   1412.63000     367.5688     264.2439   1412.63000     367.5688     264.2439
   1412.61475     366.1521     264.0719   1412.61475     366.1521     264.0719
   1412.59949     365.9411     263.3769   1412.59949     365.9411     263.3769
   1412.58423     365.7805     262.8338   1412.58423     365.7805     262.8338
   1412.56897     364.4025     263.2333   1412.56897     364.4025     263.2333
   1412.55371     363.6728     262.5268   1412.55371     363.6728     262.5268
   1412.53845     363.3057     262.6445   1412.53845     363.3057     262.6445
   1412.52319     362.3206     262.5406   1412.52319     362.3206     262.5406
   1412.50793     361.7124     262.1295   1412.50793     361.7124     262.1295
   1412.49268     361.2609     262.2394   1412.49268     361.2609     262.2394
   1412.47742     361.1219     261.8168   1412.47742     361.1219     261.8168
   1412.46216     360.7470     262.3166   1412.46216     360.7470     262.3166
   1412.44690     360.0835     262.6614   1412.44690     360.0835     262.6614
   1412.43164     360.1787     262.3044   1412.43164     360.1787     262.3044
   1412.41638     359.4390     262.6389   1412.41638     359.4390     262.6389
   1412.40112     359.6404     262.9394   1412.40112     359.6404     262.9394
   1412.38586     359.5437     262.8022   1412.38586     359.5437     262.8022
   1412.37061     359.4550     263.1502   1412.37061     359.4550     263.1502
   1412.35535     359.6561     263.4281   1412.35535     359.6561     263.4281
   1412.34009     359.5299     263.8587   1412.34009     359.5299     263.8587
   1412.32483     359.9408     264.4027   1412.32483     359.9408     264.4027
   1412.30957     359.4947     264.9007   1412.30957     359.4947     264.9007
   1412.29431     360.7601     264.9162   1412.29431     360.7601     264.9162
   1412.27905     360.2962     265.3847   1412.27905     360.2962     265.3847
   1412.26379     360.8687     265.6816   1412.26379     360.8687     265.6816
   1412.24854     361.1194     266.6800   1412.24854     361.1194     266.6800
   1412.23328     360.8104     267.1350   1412.23328     360.8104     267.1350
   1412.21802     362.7682     268.1864   1412.21802     362.7682     268.1864
   1412.20276     362.8661     268.5761   1412.20276     362.8661     268.5761