#     FILENAME=!Skynet_57528_lach-hhg-155_20510_20979.cyb.fits
#     BASENAME=Skynet_57528_lach-hhg-155_20510_20979
#     SRC_NAME=lach-hhg-155
#     OBSERVER=hhgmadison16_9500
#     DATE_OBS=2016-05-20T17:47:41.930
#        OBSID=20510
#      SCANNUM=20979
#          MJD=57528.7425
#          UTC=64151
#     SCANTYPE=track
#     DATAMODE=HIRES
#     TUNEFREQ=1420.0000
# Actual_FREQ1=1420.0000
# Actual_FREQ2=1420.0000
#    LO1Tuning=6870.000
#     RFFILTER=1355_1435
#        OBSBW=-15.6250
#        NCHAN=1024 
#        FOCUS=37.0709
#           RA=04:27:12.48
#          DEC=48:57:17.62
#      RA(hrs)=4.453500
#     DEC(deg)=48.954900
#    AZIM(deg)=3.875
#    ELEV(deg)=79.343
#     IFattens=10.00, 9.00
#      WARNING=None
#    TCAL_XL1=7.9635
#    TCAL_YR1=9.1340
#    TCAL_XL2=7.9635
#    TCAL_YR2=9.1340
#     TRX_XL1=11.7060
#     TRX_YR1=11.7060
#     TRX_XL2=11.7060
#     TRX_YR2=11.7060
#        TAVE=1.0000
#Freq1(MHz)          XL1          YR1  Freq2(MHz)          XL2          YR2 

   1427.81250     378.4734     337.1115   1427.81250     378.4734     337.1115
   1427.79724     378.8921     338.9625   1427.79724     378.8921     338.9625
   1427.78198     379.1996     340.1813   1427.78198     379.1996     340.1813
   1427.76672     379.9297     341.4826   1427.76672     379.9297     341.4826
   1427.75146     381.0983     342.8047   1427.75146     381.0983     342.8047
   1427.73621     381.5765     344.7302   1427.73621     381.5765     344.7302
   1427.72095     382.3928     346.3165   1427.72095     382.3928     346.3165
   1427.70569     383.6971     348.1737   1427.70569     383.6971     348.1737
   1427.69043     384.7043     350.6064   1427.69043     384.7043     350.6064
   1427.67517     385.4880     352.2608   1427.67517     385.4880     352.2608
   1427.65991     387.2686     354.0906   1427.65991     387.2686     354.0906
   1427.64465     387.8775     355.1304   1427.64465     387.8775     355.1304
   1427.62939     389.3048     357.3873   1427.62939     389.3048     357.3873
   1427.61414     391.1078     359.7719   1427.61414     391.1078     359.7719
   1427.59888     391.4207     361.5070   1427.59888     391.4207     361.5070
   1427.58362     393.4798     363.5719   1427.58362     393.4798     363.5719
   1427.56836     394.7555     366.0166   1427.56836     394.7555     366.0166
   1427.55310     396.5104     367.5577   1427.55310     396.5104     367.5577
   1427.53784     397.9046     370.1732   1427.53784     397.9046     370.1732
   1427.52258     399.4553     372.7289   1427.52258     399.4553     372.7289
   1427.50732     401.2588     374.2263   1427.50732     401.2588     374.2263
   1427.49207     402.9341     376.3526   1427.49207     402.9341     376.3526
   1427.47681     404.7537     379.4427   1427.47681     404.7537     379.4427
   1427.46155     406.5698     381.3678   1427.46155     406.5698     381.3678
   1427.44629     408.0523     383.9767   1427.44629     408.0523     383.9767
   1427.43103     409.4793     385.6761   1427.43103     409.4793     385.6761
   1427.41577     411.9967     388.2363   1427.41577     411.9967     388.2363
   1427.40051     414.1440     390.9538   1427.40051     414.1440     390.9538
   1427.38525     415.3991     393.4741   1427.38525     415.3991     393.4741
   1427.37000     417.9339     395.7202   1427.37000     417.9339     395.7202
   1427.35474     419.7051     398.4986   1427.35474     419.7051     398.4986
   1427.33948     421.5354     400.9473   1427.33948     421.5354     400.9473
   1427.32422     424.0968     403.3553   1427.32422     424.0968     403.3553
   1427.30896     425.7134     405.8927   1427.30896     425.7134     405.8927
   1427.29370     428.0838     407.8766   1427.29370     428.0838     407.8766
   1427.27844     429.9339     410.8750   1427.27844     429.9339     410.8750
   1427.26318     432.1130     413.5472   1427.26318     432.1130     413.5472
   1427.24792     435.1492     416.7470   1427.24792     435.1492     416.7470
   1427.23267     437.1302     418.5605   1427.23267     437.1302     418.5605
   1427.21741     439.7022     421.9752   1427.21741     439.7022     421.9752
   1427.20215     442.0981     424.0285   1427.20215     442.0981     424.0285
   1427.18689     444.9670     427.1093   1427.18689     444.9670     427.1093
   1427.17163     447.3249     429.0645   1427.17163     447.3249     429.0645
   1427.15637     449.1829     431.4788   1427.15637     449.1829     431.4788
   1427.14111     452.6981     434.4290   1427.14111     452.6981     434.4290
   1427.12585     454.5084     436.2728   1427.12585     454.5084     436.2728
   1427.11060     457.9319     439.6468   1427.11060     457.9319     439.6468
   1427.09534     459.9623     441.9096   1427.09534     459.9623     441.9096
   1427.08008     462.9951     444.5036   1427.08008     462.9951     444.5036
   1427.06482     465.7693     447.6314   1427.06482     465.7693     447.6314
   1427.04956     468.8683     450.1068   1427.04956     468.8683     450.1068
   1427.03430     471.9549     452.5372   1427.03430     471.9549     452.5372
   1427.01904     473.1082     453.9235   1427.01904     473.1082     453.9235
   1427.00378     477.0438     457.6294   1427.00378     477.0438     457.6294
   1426.98853     479.2096     460.8148   1426.98853     479.2096     460.8148
   1426.97327     482.7903     462.9845   1426.97327     482.7903     462.9845
   1426.95801     485.1438     465.5319   1426.95801     485.1438     465.5319
   1426.94275     488.0546     468.2004   1426.94275     488.0546     468.2004
   1426.92749     490.6772     470.2123   1426.92749     490.6772     470.2123
   1426.91223     493.9681     473.1211   1426.91223     493.9681     473.1211
   1426.89697     497.6066     475.8313   1426.89697     497.6066     475.8313
   1426.88171     500.5368     478.2297   1426.88171     500.5368     478.2297
   1426.86646     502.8428     480.2732   1426.86646     502.8428     480.2732
   1426.85120     506.2051     482.8004   1426.85120     506.2051     482.8004
   1426.83594     509.5917     486.0644   1426.83594     509.5917     486.0644
   1426.82068     511.7843     488.4305   1426.82068     511.7843     488.4305
   1426.80542     514.8243     490.8483   1426.80542     514.8243     490.8483
   1426.79016     517.2666     493.2357   1426.79016     517.2666     493.2357
   1426.77490     521.1630     496.4530   1426.77490     521.1630     496.4530
   1426.75964     523.5704     498.5965   1426.75964     523.5704     498.5965
   1426.74438     527.1653     500.1796   1426.74438     527.1653     500.1796
   1426.72913     530.5964     502.7718   1426.72913     530.5964     502.7718
   1426.71387     533.6749     505.5005   1426.71387     533.6749     505.5005
   1426.69861     536.9554     507.3386   1426.69861     536.9554     507.3386
   1426.68335     539.2754     510.1106   1426.68335     539.2754     510.1106
   1426.66809     542.6617     512.6473   1426.66809     542.6617     512.6473
   1426.65283     546.4062     514.9276   1426.65283     546.4062     514.9276
   1426.63757     548.5610     516.4858   1426.63757     548.5610     516.4858
   1426.62231     553.9998     529.6446   1426.62231     553.9998     529.6446
   1426.60706     554.3557     521.2568   1426.60706     554.3557     521.2568
   1426.59180     557.1071     523.3405   1426.59180     557.1071     523.3405
   1426.57654     561.1453     525.5038   1426.57654     561.1453     525.5038
   1426.56128     564.5588     527.1259   1426.56128     564.5588     527.1259
   1426.54602     567.3869     530.3533   1426.54602     567.3869     530.3533
   1426.53076     570.5451     532.3609   1426.53076     570.5451     532.3609
   1426.51550     572.8521     533.9898   1426.51550     572.8521     533.9898
   1426.50024     575.8848     536.2362   1426.50024     575.8848     536.2362
   1426.48499     579.5530     537.9458   1426.48499     579.5530     537.9458
   1426.46973     582.6615     540.6199   1426.46973     582.6615     540.6199
   1426.45447     586.0789     541.5046   1426.45447     586.0789     541.5046
   1426.43921     588.8483     543.7200   1426.43921     588.8483     543.7200
   1426.42395     591.8094     546.3347   1426.42395     591.8094     546.3347
   1426.40869     595.0103     547.7929   1426.40869     595.0103     547.7929
   1426.39343     597.3562     549.5101   1426.39343     597.3562     549.5101
   1426.37817     600.7392     550.9561   1426.37817     600.7392     550.9561
   1426.36292     604.6986     553.6246   1426.36292     604.6986     553.6246
   1426.34766     605.9564     555.3452   1426.34766     605.9564     555.3452
   1426.33240     610.2305     556.1865   1426.33240     610.2305     556.1865
   1426.31714     611.6403     559.0969   1426.31714     611.6403     559.0969
   1426.30188     615.5322     560.2080   1426.30188     615.5322     560.2080
   1426.28662     618.1719     561.9802   1426.28662     618.1719     561.9802
   1426.27136     621.9784     562.8861   1426.27136     621.9784     562.8861
   1426.25610     624.8140     565.3152   1426.25610     624.8140     565.3152
   1426.24084     627.3061     566.6492   1426.24084     627.3061     566.6492
   1426.22559     630.2426     569.0441   1426.22559     630.2426     569.0441
   1426.21033     632.7424     569.2775   1426.21033     632.7424     569.2775
   1426.19507     634.9559     571.3596   1426.19507     634.9559     571.3596
   1426.17981     638.7375     573.5261   1426.17981     638.7375     573.5261
   1426.16455     642.3376     574.4339   1426.16455     642.3376     574.4339
   1426.14929     645.2690     576.5329   1426.14929     645.2690     576.5329
   1426.13403     646.3918     577.6971   1426.13403     646.3918     577.6971
   1426.11877     649.8042     578.5789   1426.11877     649.8042     578.5789
   1426.10352     652.0653     579.4722   1426.10352     652.0653     579.4722
   1426.08826     654.6919     581.0140   1426.08826     654.6919     581.0140
   1426.07300     656.8070     582.2369   1426.07300     656.8070     582.2369
   1426.05774     659.5590     583.2988   1426.05774     659.5590     583.2988
   1426.04248     662.6409     585.3796   1426.04248     662.6409     585.3796
   1426.02722     665.7745     584.9360   1426.02722     665.7745     584.9360
   1426.01196     668.1465     587.7859   1426.01196     668.1465     587.7859
   1425.99670     669.9249     588.6613   1425.99670     669.9249     588.6613
   1425.98145     672.9528     589.0063   1425.98145     672.9528     589.0063
   1425.96619     675.1992     590.1549   1425.96619     675.1992     590.1549
   1425.95093     676.8995     591.7633   1425.95093     676.8995     591.7633
   1425.93567     680.1680     592.6252   1425.93567     680.1680     592.6252
   1425.92041     681.8201     593.8005   1425.92041     681.8201     593.8005
   1425.90515     684.4579     595.0538   1425.90515     684.4579     595.0538
   1425.88989     685.8755     597.2798   1425.88989     685.8755     597.2798
   1425.87463     688.8910     597.0114   1425.87463     688.8910     597.0114
   1425.85938     690.5940     597.7634   1425.85938     690.5940     597.7634
   1425.84412     693.5603     599.3201   1425.84412     693.5603     599.3201
   1425.82886     695.0554     600.0558   1425.82886     695.0554     600.0558
   1425.81360     698.0148     600.0842   1425.81360     698.0148     600.0842
   1425.79834     700.0312     602.1934   1425.79834     700.0312     602.1934
   1425.78308     702.5828     603.5428   1425.78308     702.5828     603.5428
   1425.76782     704.4263     603.4253   1425.76782     704.4263     603.4253
   1425.75256     706.0101     604.1707   1425.75256     706.0101     604.1707
   1425.73730     707.7868     604.4963   1425.73730     707.7868     604.4963
   1425.72205     709.9620     605.2203   1425.72205     709.9620     605.2203
   1425.70679     711.2534     606.9708   1425.70679     711.2534     606.9708
   1425.69153     712.9973     607.5170   1425.69153     712.9973     607.5170
   1425.67627     716.5406     608.7545   1425.67627     716.5406     608.7545
   1425.66101     717.4565     608.5820   1425.66101     717.4565     608.5820
   1425.64575     719.4525     608.7287   1425.64575     719.4525     608.7287
   1425.63049     721.8912     609.7651   1425.63049     721.8912     609.7651
   1425.61523     723.6554     610.8265   1425.61523     723.6554     610.8265
   1425.59998     723.6335     611.1162   1425.59998     723.6335     611.1162
   1425.58472     726.4166     611.7348   1425.58472     726.4166     611.7348
   1425.56946     728.5133     612.2712   1425.56946     728.5133     612.2712
   1425.55420     730.7018     612.8937   1425.55420     730.7018     612.8937
   1425.53894     730.5837     613.7592   1425.53894     730.5837     613.7592
   1425.52368     731.6041     613.7872   1425.52368     731.6041     613.7872
   1425.50842     734.0722     614.3253   1425.50842     734.0722     614.3253
   1425.49316     734.9293     615.5606   1425.49316     734.9293     615.5606
   1425.47791     737.3361     615.5327   1425.47791     737.3361     615.5327
   1425.46265     739.1168     615.7903   1425.46265     739.1168     615.7903
   1425.44739     739.2365     616.2134   1425.44739     739.2365     616.2134
   1425.43213     741.2747     617.3738   1425.43213     741.2747     617.3738
   1425.41687     743.3055     617.8771   1425.41687     743.3055     617.8771
   1425.40161     743.1780     617.0520   1425.40161     743.1780     617.0520
   1425.38635     744.4692     618.0316   1425.38635     744.4692     618.0316
   1425.37109     746.7784     618.8162   1425.37109     746.7784     618.8162
   1425.35583     746.6167     618.5886   1425.35583     746.6167     618.5886
   1425.34058     747.4177     618.6091   1425.34058     747.4177     618.6091
   1425.32532     749.0396     618.7918   1425.32532     749.0396     618.7918
   1425.31006     750.3846     620.1112   1425.31006     750.3846     620.1112
   1425.29480     751.6609     618.4219   1425.29480     751.6609     618.4219
   1425.27954     752.9485     619.5871   1425.27954     752.9485     619.5871
   1425.26428     754.5445     618.8032   1425.26428     754.5445     618.8032
   1425.24902     753.8043     619.7275   1425.24902     753.8043     619.7275
   1425.23376     755.2673     619.4439   1425.23376     755.2673     619.4439
   1425.21851     754.7764     621.4481   1425.21851     754.7764     621.4481
   1425.20325     757.3179     620.9559   1425.20325     757.3179     620.9559
   1425.18799     758.1578     620.4752   1425.18799     758.1578     620.4752
   1425.17273     758.2398     620.9335   1425.17273     758.2398     620.9335
   1425.15747     760.3049     620.4409   1425.15747     760.3049     620.4409
   1425.14221     761.3359     621.5947   1425.14221     761.3359     621.5947
   1425.12695     761.5017     619.9193   1425.12695     761.5017     619.9193
   1425.11169     761.5775     620.9700   1425.11169     761.5775     620.9700
   1425.09644     762.5981     621.5974   1425.09644     762.5981     621.5974
   1425.08118     763.2393     620.7878   1425.08118     763.2393     620.7878
   1425.06592     764.3127     621.2050   1425.06592     764.3127     621.2050
   1425.05066     764.6422     621.1829   1425.05066     764.6422     621.1829
   1425.03540     765.9331     620.8265   1425.03540     765.9331     620.8265
   1425.02014     764.7829     621.7641   1425.02014     764.7829     621.7641
   1425.00488     765.6165     620.4718   1425.00488     765.6165     620.4718
   1424.98962     766.6404     621.9251   1424.98962     766.6404     621.9251
   1424.97437     767.3535     622.6873   1424.97437     767.3535     622.6873
   1424.95911     767.4656     621.3796   1424.95911     767.4656     621.3796
   1424.94385     767.4044     621.4561   1424.94385     767.4044     621.4561
   1424.92859     766.4639     621.4251   1424.92859     766.4639     621.4251
   1424.91333     767.0070     621.6484   1424.91333     767.0070     621.6484
   1424.89807     769.4429     621.2299   1424.89807     769.4429     621.2299
   1424.88281     769.5132     620.6234   1424.88281     769.5132     620.6234
   1424.86755     769.4225     619.6401   1424.86755     769.4225     619.6401
   1424.85229     769.2817     620.9023   1424.85229     769.2817     620.9023
   1424.83704     770.1035     620.2725   1424.83704     770.1035     620.2725
   1424.82178     768.8226     620.7180   1424.82178     768.8226     620.7180
   1424.80652     770.6340     619.9136   1424.80652     770.6340     619.9136
   1424.79126     770.0394     619.3032   1424.79126     770.0394     619.3032
   1424.77600     770.5349     620.3738   1424.77600     770.5349     620.3738
   1424.76074     771.0482     620.2368   1424.76074     771.0482     620.2368
   1424.74548     769.3627     620.6496   1424.74548     769.3627     620.6496
   1424.73022     771.4270     618.6655   1424.73022     771.4270     618.6655
   1424.71497     770.1531     619.5406   1424.71497     770.1531     619.5406
   1424.69971     770.2325     618.7474   1424.69971     770.2325     618.7474
   1424.68445     771.6617     619.0544   1424.68445     771.6617     619.0544
   1424.66919     769.7878     618.1465   1424.66919     769.7878     618.1465
   1424.65393     770.4482     618.2980   1424.65393     770.4482     618.2980
   1424.63867     770.8094     618.7612   1424.63867     770.8094     618.7612
   1424.62341     770.6650     617.6214   1424.62341     770.6650     617.6214
   1424.60815     771.0410     617.3975   1424.60815     771.0410     617.3975
   1424.59290     771.3281     617.0918   1424.59290     771.3281     617.0918
   1424.57764     769.1904     616.4195   1424.57764     769.1904     616.4195
   1424.56238     769.0283     616.2492   1424.56238     769.0283     616.2492
   1424.54712     770.3073     617.0439   1424.54712     770.3073     617.0439
   1424.53186     769.4922     615.0663   1424.53186     769.4922     615.0663
   1424.51660     770.1119     614.4632   1424.51660     770.1119     614.4632
   1424.50134     769.6581     615.0568   1424.50134     769.6581     615.0568
   1424.48608     768.7435     614.6495   1424.48608     768.7435     614.6495
   1424.47083     769.7359     614.8467   1424.47083     769.7359     614.8467
   1424.45557     769.3054     614.5991   1424.45557     769.3054     614.5991
   1424.44031     768.0741     613.1541   1424.44031     768.0741     613.1541
   1424.42505     768.2909     614.2464   1424.42505     768.2909     614.2464
   1424.40979     767.5167     611.4572   1424.40979     767.5167     611.4572
   1424.39453     767.9734     613.9367   1424.39453     767.9734     613.9367
   1424.37927     766.0074     611.6987   1424.37927     766.0074     611.6987
   1424.36401     766.7369     612.5280   1424.36401     766.7369     612.5280
   1424.34875     766.3974     612.2314   1424.34875     766.3974     612.2314
   1424.33350     766.2022     610.8759   1424.33350     766.2022     610.8759
   1424.31824     766.4109     611.0623   1424.31824     766.4109     611.0623
   1424.30298     766.4979     610.7424   1424.30298     766.4979     610.7424
   1424.28772     766.0861     610.0605   1424.28772     766.0861     610.0605
   1424.27246     766.9878     609.1552   1424.27246     766.9878     609.1552
   1424.25720     764.6036     609.9550   1424.25720     764.6036     609.9550
   1424.24194     764.8007     608.9764   1424.24194     764.8007     608.9764
   1424.22668     764.4291     608.8803   1424.22668     764.4291     608.8803
   1424.21143     764.0375     608.1461   1424.21143     764.0375     608.1461
   1424.19617     763.6911     608.4840   1424.19617     763.6911     608.4840
   1424.18091     763.5283     606.7353   1424.18091     763.5283     606.7353
   1424.16565     762.8727     607.9230   1424.16565     762.8727     607.9230
   1424.15039     761.6265     607.2561   1424.15039     761.6265     607.2561
   1424.13513     761.4534     605.8304   1424.13513     761.4534     605.8304
   1424.11987     760.8486     606.5518   1424.11987     760.8486     606.5518
   1424.10461     760.5515     605.0639   1424.10461     760.5515     605.0639
   1424.08936     760.7952     604.7933   1424.08936     760.7952     604.7933
   1424.07410     759.3036     604.9703   1424.07410     759.3036     604.9703
   1424.05884     759.8442     604.3525   1424.05884     759.8442     604.3525
   1424.04358     759.3018     602.9443   1424.04358     759.3018     602.9443
   1424.02832     757.6195     603.3940   1424.02832     757.6195     603.3940
   1424.01306     759.0731     603.4269   1424.01306     759.0731     603.4269
   1423.99780     757.6601     602.2168   1423.99780     757.6601     602.2168
   1423.98254     756.9018     602.0161   1423.98254     756.9018     602.0161
   1423.96729     756.1751     600.9671   1423.96729     756.1751     600.9671
   1423.95203     756.5107     600.9078   1423.95203     756.5107     600.9078
   1423.93677     755.5634     600.8130   1423.93677     755.5634     600.8130
   1423.92151     756.4477     599.6351   1423.92151     756.4477     599.6351
   1423.90625     755.1164     598.7014   1423.90625     755.1164     598.7014
   1423.89099     753.5923     599.4073   1423.89099     753.5923     599.4073
   1423.87573     753.3883     598.1863   1423.87573     753.3883     598.1863
   1423.86047     752.8803     598.5540   1423.86047     752.8803     598.5540
   1423.84521     752.6683     596.7014   1423.84521     752.6683     596.7014
   1423.82996     752.7225     596.4683   1423.82996     752.7225     596.4683
   1423.81470     750.9449     596.6142   1423.81470     750.9449     596.6142
   1423.79944     751.2844     596.5144   1423.79944     751.2844     596.5144
   1423.78418     749.7926     595.4324   1423.78418     749.7926     595.4324
   1423.76892     750.7530     594.9734   1423.76892     750.7530     594.9734
   1423.75366     749.5897     593.1514   1423.75366     749.5897     593.1514
   1423.73840     749.8776     594.4448   1423.73840     749.8776     594.4448
   1423.72314     749.1527     593.3126   1423.72314     749.1527     593.3126
   1423.70789     747.7289     592.8939   1423.70789     747.7289     592.8939
   1423.69263     747.7549     592.2333   1423.69263     747.7549     592.2333
   1423.67737     747.5696     591.5126   1423.67737     747.5696     591.5126
   1423.66211     747.1647     590.7559   1423.66211     747.1647     590.7559
   1423.64685     746.1012     591.0251   1423.64685     746.1012     591.0251
   1423.63159     745.3959     590.0075   1423.63159     745.3959     590.0075
   1423.61633     745.1941     589.0643   1423.61633     745.1941     589.0643
   1423.60107     744.9297     589.2565   1423.60107     744.9297     589.2565
   1423.58582     745.3922     588.9966   1423.58582     745.3922     588.9966
   1423.57056     744.3533     587.9406   1423.57056     744.3533     587.9406
   1423.55530     743.2800     588.1036   1423.55530     743.2800     588.1036
   1423.54004     742.6516     587.3234   1423.54004     742.6516     587.3234
   1423.52478     741.5372     586.7442   1423.52478     741.5372     586.7442
   1423.50952     742.2151     587.0314   1423.50952     742.2151     587.0314
   1423.49426     741.7202     586.2916   1423.49426     741.7202     586.2916
   1423.47900     740.8427     584.6204   1423.47900     740.8427     584.6204
   1423.46375     739.0325     584.0692   1423.46375     739.0325     584.0692
   1423.44849     739.7369     583.0124   1423.44849     739.7369     583.0124
   1423.43323     739.4504     583.2753   1423.43323     739.4504     583.2753
   1423.41797     740.6677     584.0964   1423.41797     740.6677     584.0964
   1423.40271     739.2484     581.6716   1423.40271     739.2484     581.6716
   1423.38745     738.4616     581.6713   1423.38745     738.4616     581.6713
   1423.37219     739.1236     581.4703   1423.37219     739.1236     581.4703
   1423.35693     736.6907     580.6760   1423.35693     736.6907     580.6760
   1423.34167     738.3889     580.2762   1423.34167     738.3889     580.2762
   1423.32642     737.1273     579.3516   1423.32642     737.1273     579.3516
   1423.31116     736.1795     579.3148   1423.31116     736.1795     579.3148
   1423.29590     735.3257     578.2559   1423.29590     735.3257     578.2559
   1423.28064     736.0475     577.7236   1423.28064     736.0475     577.7236
   1423.26538     735.3636     576.2523   1423.26538     735.3636     576.2523
   1423.25012     734.5458     575.9850   1423.25012     734.5458     575.9850
   1423.23486     734.0637     576.1978   1423.23486     734.0637     576.1978
   1423.21960     734.1918     575.2246   1423.21960     734.1918     575.2246
   1423.20435     732.5952     574.8975   1423.20435     732.5952     574.8975
   1423.18909     732.8456     572.9790   1423.18909     732.8456     572.9790
   1423.17383     731.8809     573.2603   1423.17383     731.8809     573.2603
   1423.15857     731.7672     572.2310   1423.15857     731.7672     572.2310
   1423.14331     731.5325     572.5687   1423.14331     731.5325     572.5687
   1423.12805     732.0756     572.1379   1423.12805     732.0756     572.1379
   1423.11279     730.3997     570.6689   1423.11279     730.3997     570.6689
   1423.09753     731.9698     570.5096   1423.09753     731.9698     570.5096
   1423.08228     730.5132     569.2715   1423.08228     730.5132     569.2715
   1423.06702     730.7000     569.5132   1423.06702     730.7000     569.5132
   1423.05176     730.3210     568.1114   1423.05176     730.3210     568.1114
   1423.03650     728.6410     568.1387   1423.03650     728.6410     568.1387
   1423.02124     730.1861     566.8621   1423.02124     730.1861     566.8621
   1423.00598     729.7161     566.5232   1423.00598     729.7161     566.5232
   1422.99072     728.0544     565.6439   1422.99072     728.0544     565.6439
   1422.97546     728.3104     565.3218   1422.97546     728.3104     565.3218
   1422.96021     727.8598     565.0287   1422.96021     727.8598     565.0287
   1422.94495     727.1921     563.3981   1422.94495     727.1921     563.3981
   1422.92969     727.0449     562.9061   1422.92969     727.0449     562.9061
   1422.91443     726.9198     563.1238   1422.91443     726.9198     563.1238
   1422.89917     728.0052     561.8801   1422.89917     728.0052     561.8801
   1422.88391     726.0956     561.0563   1422.88391     726.0956     561.0563
   1422.86865     726.5107     560.2292   1422.86865     726.5107     560.2292
   1422.85339     725.0908     559.4717   1422.85339     725.0908     559.4717
   1422.83813     725.7922     558.6342   1422.83813     725.7922     558.6342
   1422.82288     725.7319     557.9322   1422.82288     725.7319     557.9322
   1422.80762     725.9388     557.8269   1422.80762     725.9388     557.8269
   1422.79236     723.9637     556.2977   1422.79236     723.9637     556.2977
   1422.77710     723.8152     556.1559   1422.77710     723.8152     556.1559
   1422.76184     725.5606     555.4530   1422.76184     725.5606     555.4530
   1422.74658     725.0203     555.1816   1422.74658     725.0203     555.1816
   1422.73132     725.2324     554.3258   1422.73132     725.2324     554.3258
   1422.71606     724.2318     552.4334   1422.71606     724.2318     552.4334
   1422.70081     724.0889     553.2029   1422.70081     724.0889     553.2029
   1422.68555     722.5204     552.2495   1422.68555     722.5204     552.2495
   1422.67029     722.6891     551.7920   1422.67029     722.6891     551.7920
   1422.65503     722.1112     550.9401   1422.65503     722.1112     550.9401
   1422.63977     722.7967     550.1033   1422.63977     722.7967     550.1033
   1422.62451     722.7101     549.5226   1422.62451     722.7101     549.5226
   1422.60925     722.8076     547.9300   1422.60925     722.8076     547.9300
   1422.59399     723.0895     547.8456   1422.59399     723.0895     547.8456
   1422.57874     721.6680     546.8936   1422.57874     721.6680     546.8936
   1422.56348     722.0574     545.4366   1422.56348     722.0574     545.4366
   1422.54822     721.4985     545.9721   1422.54822     721.4985     545.9721
   1422.53296     721.1066     544.8809   1422.53296     721.1066     544.8809
   1422.51770     721.9782     544.0613   1422.51770     721.9782     544.0613
   1422.50244     721.1689     542.7052   1422.50244     721.1689     542.7052
   1422.48718     721.8105     542.3730   1422.48718     721.8105     542.3730
   1422.47192     720.2690     541.8807   1422.47192     720.2690     541.8807
   1422.45667     720.0750     539.9224   1422.45667     720.0750     539.9224
   1422.44141     719.3928     540.3979   1422.44141     719.3928     540.3979
   1422.42615     719.8630     539.1420   1422.42615     719.8630     539.1420
   1422.41089     719.9756     538.7320   1422.41089     719.9756     538.7320
   1422.39563     720.6094     537.1469   1422.39563     720.6094     537.1469
   1422.38037     720.3319     536.1683   1422.38037     720.3319     536.1683
   1422.36511     719.2390     536.7087   1422.36511     719.2390     536.7087
   1422.34985     719.9633     534.6170   1422.34985     719.9633     534.6170
   1422.33459     719.1340     535.0632   1422.33459     719.1340     535.0632
   1422.31934     718.5256     533.3251   1422.31934     718.5256     533.3251
   1422.30408     719.6851     533.1428   1422.30408     719.6851     533.1428
   1422.28882     718.8091     532.4497   1422.28882     718.8091     532.4497
   1422.27356     720.0387     530.1230   1422.27356     720.0387     530.1230
   1422.25830     719.3333     530.2547   1422.25830     719.3333     530.2547
   1422.24304     719.4037     529.7695   1422.24304     719.4037     529.7695
   1422.22778     718.6086     528.4552   1422.22778     718.6086     528.4552
   1422.21252     718.2767     527.7847   1422.21252     718.2767     527.7847
   1422.19727     718.3185     526.7052   1422.19727     718.3185     526.7052
   1422.18201     718.7932     526.3179   1422.18201     718.7932     526.3179
   1422.16675     718.5200     525.6926   1422.16675     718.5200     525.6926
   1422.15149     718.4672     524.8277   1422.15149     718.4672     524.8277
   1422.13623     717.9456     523.7983   1422.13623     717.9456     523.7983
   1422.12097     718.0380     522.9589   1422.12097     718.0380     522.9589
   1422.10571     718.6294     522.3864   1422.10571     718.6294     522.3864
   1422.09045     717.4454     520.3666   1422.09045     717.4454     520.3666
   1422.07520     717.8489     520.3581   1422.07520     717.8489     520.3581
   1422.05994     718.0458     518.8126   1422.05994     718.0458     518.8126
   1422.04468     717.5848     518.1782   1422.04468     717.5848     518.1782
   1422.02942     717.7728     516.3952   1422.02942     717.7728     516.3952
   1422.01416     717.8862     516.5071   1422.01416     717.8862     516.5071
   1421.99890     717.1084     514.5715   1421.99890     717.1084     514.5715
   1421.98364     717.4011     515.1644   1421.98364     717.4011     515.1644
   1421.96838     716.5906     513.2380   1421.96838     716.5906     513.2380
   1421.95312     717.2380     512.3946   1421.95312     717.2380     512.3946
   1421.93787     717.7307     512.5048   1421.93787     717.7307     512.5048
   1421.92261     718.8199     510.7625   1421.92261     718.8199     510.7625
   1421.90735     717.3114     510.5702   1421.90735     717.3114     510.5702
   1421.89209     717.6860     508.3616   1421.89209     717.6860     508.3616
   1421.87683     716.6069     508.8369   1421.87683     716.6069     508.8369
   1421.86157     716.2825     507.5862   1421.86157     716.2825     507.5862
   1421.84631     716.0536     506.8000   1421.84631     716.0536     506.8000
   1421.83105     716.5335     505.8458   1421.83105     716.5335     505.8458
   1421.81580     716.1762     505.1747   1421.81580     716.1762     505.1747
   1421.80054     716.7460     503.9323   1421.80054     716.7460     503.9323
   1421.78528     716.4428     503.2280   1421.78528     716.4428     503.2280
   1421.77002     717.3918     501.2080   1421.77002     717.3918     501.2080
   1421.75476     716.8968     501.1916   1421.75476     716.8968     501.1916
   1421.73950     715.6978     499.6232   1421.73950     715.6978     499.6232
   1421.72424     716.5247     499.3085   1421.72424     716.5247     499.3085
   1421.70898     716.9269     499.0616   1421.70898     716.9269     499.0616
   1421.69373     716.6318     497.7741   1421.69373     716.6318     497.7741
   1421.67847     715.9512     496.8761   1421.67847     715.9512     496.8761
   1421.66321     715.2191     495.2447   1421.66321     715.2191     495.2447
   1421.64795     715.8156     495.0754   1421.64795     715.8156     495.0754
   1421.63269     715.6556     493.4109   1421.63269     715.6556     493.4109
   1421.61743     715.3497     492.7213   1421.61743     715.3497     492.7213
   1421.60217     715.2881     492.2943   1421.60217     715.2881     492.2943
   1421.58691     715.3721     490.7534   1421.58691     715.3721     490.7534
   1421.57166     715.3284     489.6265   1421.57166     715.3284     489.6265
   1421.55640     714.0090     488.8645   1421.55640     714.0090     488.8645
   1421.54114     714.8500     487.6715   1421.54114     714.8500     487.6715
   1421.52588     715.0309     487.5099   1421.52588     715.0309     487.5099
   1421.51062     714.3162     485.4134   1421.51062     714.3162     485.4134
   1421.49536     714.2938     485.9085   1421.49536     714.2938     485.9085
   1421.48010     714.7296     483.9644   1421.48010     714.7296     483.9644
   1421.46484     714.9078     482.9893   1421.46484     714.9078     482.9893
   1421.44958     715.3710     481.8432   1421.44958     715.3710     481.8432
   1421.43433     713.4547     481.8053   1421.43433     713.4547     481.8053
   1421.41907     714.2434     479.8339   1421.41907     714.2434     479.8339
   1421.40381     714.0485     480.2220   1421.40381     714.0485     480.2220
   1421.38855     714.1703     478.8342   1421.38855     714.1703     478.8342
   1421.37329     713.3311     477.2344   1421.37329     713.3311     477.2344
   1421.35803     713.8164     476.6624   1421.35803     713.8164     476.6624
   1421.34277     713.2569     475.6281   1421.34277     713.2569     475.6281
   1421.32751     713.9707     474.4534   1421.32751     713.9707     474.4534
   1421.31226     714.3103     474.3846   1421.31226     714.3103     474.3846
   1421.29700     713.7034     473.1619   1421.29700     713.7034     473.1619
   1421.28174     712.4335     473.0419   1421.28174     712.4335     473.0419
   1421.26648     713.6837     471.4589   1421.26648     713.6837     471.4589
   1421.25122     713.3446     470.7495   1421.25122     713.3446     470.7495
   1421.23596     711.0493     469.1497   1421.23596     711.0493     469.1497
   1421.22070     712.2347     467.0611   1421.22070     712.2347     467.0611
   1421.20544     712.5496     468.1016   1421.20544     712.5496     468.1016
   1421.19019     712.9399     466.4720   1421.19019     712.9399     466.4720
   1421.17493     712.4935     466.0274   1421.17493     712.4935     466.0274
   1421.15967     713.1804     464.3986   1421.15967     713.1804     464.3986
   1421.14441     711.5539     463.2718   1421.14441     711.5539     463.2718
   1421.12915     711.6459     463.0131   1421.12915     711.6459     463.0131
   1421.11389     711.5958     462.0161   1421.11389     711.5958     462.0161
   1421.09863     710.6950     461.2831   1421.09863     710.6950     461.2831
   1421.08337     713.2922     459.6163   1421.08337     713.2922     459.6163
   1421.06812     712.5809     459.2691   1421.06812     712.5809     459.2691
   1421.05286     712.5581     459.6984   1421.05286     712.5581     459.6984
   1421.03760     710.8384     457.7567   1421.03760     710.8384     457.7567
   1421.02234     712.3885     457.1176   1421.02234     712.3885     457.1176
   1421.00708     712.4577     456.1359   1421.00708     712.4577     456.1359
   1420.99182     711.9316     455.7759   1420.99182     711.9316     455.7759
   1420.97656     713.3452     454.6244   1420.97656     713.3452     454.6244
   1420.96130     711.2438     454.4652   1420.96130     711.2438     454.4652
   1420.94604     712.9979     454.1652   1420.94604     712.9979     454.1652
   1420.93079     714.8814     452.6930   1420.93079     714.8814     452.6930
   1420.91553     713.2728     452.8579   1420.91553     713.2728     452.8579
   1420.90027     715.3406     451.9660   1420.90027     715.3406     451.9660
   1420.88501     714.5978     451.4204   1420.88501     714.5978     451.4204
   1420.86975     716.7480     451.0658   1420.86975     716.7480     451.0658
   1420.85449     714.9279     450.4945   1420.85449     714.9279     450.4945
   1420.83923     717.5782     450.1702   1420.83923     717.5782     450.1702
   1420.82397     718.3954     450.7160   1420.82397     718.3954     450.7160
   1420.80872     721.1212     450.5824   1420.80872     721.1212     450.5824
   1420.79346     724.5009     452.8172   1420.79346     724.5009     452.8172
   1420.77820     731.3156     456.6244   1420.77820     731.3156     456.6244
   1420.76294     749.1533     464.9152   1420.76294     749.1533     464.9152
   1420.74768     763.8369     473.7426   1420.74768     763.8369     473.7426
   1420.73242     766.2099     474.5622   1420.73242     766.2099     474.5622
   1420.71716     769.4681     474.9658   1420.71716     769.4681     474.9658
   1420.70190     786.0233     484.8973   1420.70190     786.0233     484.8973
   1420.68665     826.1216     506.1075   1420.68665     826.1216     506.1075
   1420.67139     869.1841     532.9195   1420.67139     869.1841     532.9195
   1420.65613     896.3333     548.3783   1420.65613     896.3333     548.3783
   1420.64087     910.2028     555.0894   1420.64087     910.2028     555.0894
   1420.62561    1003.1695     609.6364   1420.62561    1003.1695     609.6364
   1420.61035    1323.9008     798.2405   1420.61035    1323.9008     798.2405
   1420.59509    1629.1975     975.6547   1420.59509    1629.1975     975.6547
   1420.57983    1712.9451    1022.6255   1420.57983    1712.9451    1022.6255
   1420.56458    1805.7947    1074.2233   1420.56458    1805.7947    1074.2233
   1420.54932    2061.8494    1224.0721   1420.54932    2061.8494    1224.0721
   1420.53406    2207.4087    1310.5448   1420.53406    2207.4087    1310.5448
   1420.51880    2370.3169    1403.0441   1420.51880    2370.3169    1403.0441
   1420.50354    2420.2756    1428.3167   1420.50354    2420.2756    1428.3167
   1420.48828    2258.5386    1330.4888   1420.48828    2258.5386    1330.4888
   1420.47302    2154.4390    1268.4988   1420.47302    2154.4390    1268.4988
   1420.45776    2188.7427    1284.3193   1420.45776    2188.7427    1284.3193
   1420.44250    2155.7019    1260.9900   1420.44250    2155.7019    1260.9900
   1420.42725    1903.2419    1116.7400   1420.42725    1903.2419    1116.7400
   1420.41199    1721.2993    1009.1178   1420.41199    1721.2993    1009.1178
   1420.39673    1742.5789    1021.3517   1420.39673    1742.5789    1021.3517
   1420.38147    1816.0221    1059.7264   1420.38147    1816.0221    1059.7264
   1420.36621    1789.0287    1045.1630   1420.36621    1789.0287    1045.1630
   1420.35095    1518.3462     886.4191   1420.35095    1518.3462     886.4191
   1420.33569    1296.1061     756.4227   1420.33569    1296.1061     756.4227
   1420.32043     939.6655     551.2064   1420.32043     939.6655     551.2064
   1420.30518     825.8984     486.1005   1420.30518     825.8984     486.1005
   1420.28992     776.8375     456.8315   1420.28992     776.8375     456.8315
   1420.27466     747.3425     440.7899   1420.27466     747.3425     440.7899
   1420.25940     730.5507     430.6452   1420.25940     730.5507     430.6452
   1420.24414     721.5723     424.5497   1420.24414     721.5723     424.5497
   1420.22888     716.1760     420.5123   1420.22888     716.1760     420.5123
   1420.21362     712.3104     417.6322   1420.21362     712.3104     417.6322
   1420.19836     706.9205     415.0031   1420.19836     706.9205     415.0031
   1420.18311     707.2529     413.3538   1420.18311     707.2529     413.3538
   1420.16785     705.4097     411.6312   1420.16785     705.4097     411.6312
   1420.15259     703.5529     410.3040   1420.15259     703.5529     410.3040
   1420.13733     704.0317     409.6725   1420.13733     704.0317     409.6725
   1420.12207     702.9839     408.6829   1420.12207     702.9839     408.6829
   1420.10681     701.1491     406.8381   1420.10681     701.1491     406.8381
   1420.09155     700.4249     406.1830   1420.09155     700.4249     406.1830
   1420.07629     700.0243     404.3596   1420.07629     700.0243     404.3596
   1420.06104     700.8138     404.7465   1420.06104     700.8138     404.7465
   1420.04578     699.2570     403.6809   1420.04578     699.2570     403.6809
   1420.03052     699.8466     402.9209   1420.03052     699.8466     402.9209
   1420.01526     699.6340     403.1301   1420.01526     699.6340     403.1301
   1420.00000     700.1948     403.5751   1420.00000     700.1948     403.5751
   1419.98474     700.7559     404.0203   1419.98474     700.7559     404.0203
   1419.96948     700.8162     401.4361   1419.96948     700.8162     401.4361
   1419.95422     697.4605     399.9633   1419.95422     697.4605     399.9633
   1419.93896     698.4211     399.1171   1419.93896     698.4211     399.1171
   1419.92371     697.4975     398.5370   1419.92371     697.4975     398.5370
   1419.90845     698.5400     397.5850   1419.90845     698.5400     397.5850
   1419.89319     697.8903     397.5149   1419.89319     697.8903     397.5149
   1419.87793     698.5155     396.5027   1419.87793     698.5155     396.5027
   1419.86267     698.7293     396.1910   1419.86267     698.7293     396.1910
   1419.84741     698.4229     396.4102   1419.84741     698.4229     396.4102
   1419.83215     697.6594     395.3030   1419.83215     697.6594     395.3030
   1419.81689     697.6752     394.8311   1419.81689     697.6752     394.8311
   1419.80164     698.2786     394.4281   1419.80164     698.2786     394.4281
   1419.78638     698.2702     393.6622   1419.78638     698.2702     393.6622
   1419.77112     699.6205     393.2666   1419.77112     699.6205     393.2666
   1419.75586     698.6158     392.1328   1419.75586     698.6158     392.1328
   1419.74060     699.3638     392.2007   1419.74060     699.3638     392.2007
   1419.72534     697.6980     391.6423   1419.72534     697.6980     391.6423
   1419.71008     699.0345     391.3939   1419.71008     699.0345     391.3939
   1419.69482     698.6671     391.2118   1419.69482     698.6671     391.2118
   1419.67957     699.1678     390.7791   1419.67957     699.1678     390.7791
   1419.66431     698.9543     389.8654   1419.66431     698.9543     389.8654
   1419.64905     699.8409     389.8885   1419.64905     699.8409     389.8885
   1419.63379     699.8736     389.2966   1419.63379     699.8736     389.2966
   1419.61853     699.9191     389.2747   1419.61853     699.9191     389.2747
   1419.60327     699.7549     389.0052   1419.60327     699.7549     389.0052
   1419.58801     698.7755     388.8213   1419.58801     698.7755     388.8213
   1419.57275     700.2341     388.3413   1419.57275     700.2341     388.3413
   1419.55750     701.5664     387.7471   1419.55750     701.5664     387.7471
   1419.54224     701.4243     387.6569   1419.54224     701.4243     387.6569
   1419.52698     699.6583     387.5275   1419.52698     699.6583     387.5275
   1419.51172     702.3318     386.3906   1419.51172     702.3318     386.3906
   1419.49646     700.8350     387.0161   1419.49646     700.8350     387.0161
   1419.48120     699.8408     386.6435   1419.48120     699.8408     386.6435
   1419.46594     701.4898     386.3069   1419.46594     701.4898     386.3069
   1419.45068     702.6350     385.7050   1419.45068     702.6350     385.7050
   1419.43542     701.7141     385.6850   1419.43542     701.7141     385.6850
   1419.42017     701.9760     385.5598   1419.42017     701.9760     385.5598
   1419.40491     702.1668     385.0324   1419.40491     702.1668     385.0324
   1419.38965     701.7521     385.0718   1419.38965     701.7521     385.0718
   1419.37439     703.8885     384.6672   1419.37439     703.8885     384.6672
   1419.35913     702.8929     384.7276   1419.35913     702.8929     384.7276
   1419.34387     704.2404     385.0685   1419.34387     704.2404     385.0685
   1419.32861     702.8487     384.5738   1419.32861     702.8487     384.5738
   1419.31335     703.7603     384.3811   1419.31335     703.7603     384.3811
   1419.29810     704.9280     383.8506   1419.29810     704.9280     383.8506
   1419.28284     704.2828     383.5467   1419.28284     704.2828     383.5467
   1419.26758     705.0820     383.4666   1419.26758     705.0820     383.4666
   1419.25232     706.1851     383.4672   1419.25232     706.1851     383.4672
   1419.23706     706.3391     383.6791   1419.23706     706.3391     383.6791
   1419.22180     705.8475     383.3090   1419.22180     705.8475     383.3090
   1419.20654     706.1108     383.4524   1419.20654     706.1108     383.4524
   1419.19128     707.1154     382.5977   1419.19128     707.1154     382.5977
   1419.17603     707.5161     383.5617   1419.17603     707.5161     383.5617
   1419.16077     707.6644     383.1084   1419.16077     707.6644     383.1084
   1419.14551     707.1726     383.3961   1419.14551     707.1726     383.3961
   1419.13025     708.1954     383.4678   1419.13025     708.1954     383.4678
   1419.11499     708.8742     382.9233   1419.11499     708.8742     382.9233
   1419.09973     710.1106     383.2799   1419.09973     710.1106     383.2799
   1419.08447     709.8073     383.5335   1419.08447     709.8073     383.5335
   1419.06921     710.7159     382.9286   1419.06921     710.7159     382.9286
   1419.05396     710.9260     383.7901   1419.05396     710.9260     383.7901
   1419.03870     711.4069     383.3258   1419.03870     711.4069     383.3258
   1419.02344     711.7738     383.0439   1419.02344     711.7738     383.0439
   1419.00818     712.3091     382.7547   1419.00818     712.3091     382.7547
   1418.99292     711.9431     384.0179   1418.99292     711.9431     384.0179
   1418.97766     713.1807     383.5992   1418.97766     713.1807     383.5992
   1418.96240     712.8643     383.1988   1418.96240     712.8643     383.1988
   1418.94714     714.4166     383.1889   1418.94714     714.4166     383.1889
   1418.93188     714.7308     383.4451   1418.93188     714.7308     383.4451
   1418.91663     714.2216     383.9695   1418.91663     714.2216     383.9695
   1418.90137     714.8997     383.6627   1418.90137     714.8997     383.6627
   1418.88611     716.1324     383.9816   1418.88611     716.1324     383.9816
   1418.87085     715.5209     383.8116   1418.87085     715.5209     383.8116
   1418.85559     716.0551     384.9587   1418.85559     716.0551     384.9587
   1418.84033     717.2525     384.6364   1418.84033     717.2525     384.6364
   1418.82507     717.9147     385.1044   1418.82507     717.9147     385.1044
   1418.80981     719.1930     384.9343   1418.80981     719.1930     384.9343
   1418.79456     718.8152     385.4118   1418.79456     718.8152     385.4118
   1418.77930     718.8045     385.1732   1418.77930     718.8045     385.1732
   1418.76404     719.7398     385.9419   1418.76404     719.7398     385.9419
   1418.74878     721.1149     386.1782   1418.74878     721.1149     386.1782
   1418.73352     720.5927     386.9935   1418.73352     720.5927     386.9935
   1418.71826     721.5167     385.8761   1418.71826     721.5167     385.8761
   1418.70300     722.0783     387.3954   1418.70300     722.0783     387.3954
   1418.68774     722.0450     387.4749   1418.68774     722.0450     387.4749
   1418.67249     723.0545     387.2145   1418.67249     723.0545     387.2145
   1418.65723     723.2890     387.3653   1418.65723     723.2890     387.3653
   1418.64197     725.6017     387.7669   1418.64197     725.6017     387.7669
   1418.62671     725.1290     389.3316   1418.62671     725.1290     389.3316
   1418.61145     726.0629     389.2081   1418.61145     726.0629     389.2081
   1418.59619     726.8531     389.2742   1418.59619     726.8531     389.2742
   1418.58093     727.2468     389.3972   1418.58093     727.2468     389.3972
   1418.56567     728.2020     389.9344   1418.56567     728.2020     389.9344
   1418.55042     728.8721     390.0549   1418.55042     728.8721     390.0549
   1418.53516     729.0454     390.0707   1418.53516     729.0454     390.0707
   1418.51990     729.7256     390.9029   1418.51990     729.7256     390.9029
   1418.50464     731.1486     391.2554   1418.50464     731.1486     391.2554
   1418.48938     731.7650     391.6765   1418.48938     731.7650     391.6765
   1418.47412     733.1328     392.9055   1418.47412     733.1328     392.9055
   1418.45886     733.0431     392.7406   1418.45886     733.0431     392.7406
   1418.44360     733.0591     393.5321   1418.44360     733.0591     393.5321
   1418.42834     734.4944     393.9172   1418.42834     734.4944     393.9172
   1418.41309     734.3548     394.3412   1418.41309     734.3548     394.3412
   1418.39783     734.8641     395.0974   1418.39783     734.8641     395.0974
   1418.38257     736.0634     395.4518   1418.38257     736.0634     395.4518
   1418.36731     737.7042     395.5921   1418.36731     737.7042     395.5921
   1418.35205     737.7000     396.4691   1418.35205     737.7000     396.4691
   1418.33679     738.1547     397.0623   1418.33679     738.1547     397.0623
   1418.32153     737.4631     397.6945   1418.32153     737.4631     397.6945
   1418.30627     740.3870     397.7559   1418.30627     740.3870     397.7559
   1418.29102     740.4053     398.4407   1418.29102     740.4053     398.4407
   1418.27576     741.1907     398.9139   1418.27576     741.1907     398.9139
   1418.26050     741.8499     399.4857   1418.26050     741.8499     399.4857
   1418.24524     743.4003     400.0019   1418.24524     743.4003     400.0019
   1418.22998     742.6197     401.0883   1418.22998     742.6197     401.0883
   1418.21472     744.1656     401.2328   1418.21472     744.1656     401.2328
   1418.19946     745.3218     401.4889   1418.19946     745.3218     401.4889
   1418.18420     746.2974     402.8238   1418.18420     746.2974     402.8238
   1418.16895     746.0397     403.1862   1418.16895     746.0397     403.1862
   1418.15369     746.5190     404.5754   1418.15369     746.5190     404.5754
   1418.13843     747.6793     404.6417   1418.13843     747.6793     404.6417
   1418.12317     750.2492     405.2730   1418.12317     750.2492     405.2730
   1418.10791     751.5955     406.1119   1418.10791     751.5955     406.1119
   1418.09265     750.4116     407.3713   1418.09265     750.4116     407.3713
   1418.07739     751.6906     407.9237   1418.07739     751.6906     407.9237
   1418.06213     752.4679     408.0399   1418.06213     752.4679     408.0399
   1418.04688     753.7563     408.5341   1418.04688     753.7563     408.5341
   1418.03162     754.1546     409.8765   1418.03162     754.1546     409.8765
   1418.01636     754.2514     410.5603   1418.01636     754.2514     410.5603
   1418.00110     755.5906     411.5075   1418.00110     755.5906     411.5075
   1417.98584     755.5442     412.0714   1417.98584     755.5442     412.0714
   1417.97058     758.1505     413.3052   1417.97058     758.1505     413.3052
   1417.95532     758.1760     414.1066   1417.95532     758.1760     414.1066
   1417.94006     758.6210     414.5716   1417.94006     758.6210     414.5716
   1417.92480     759.2753     415.1701   1417.92480     759.2753     415.1701
   1417.90955     761.5490     416.2431   1417.90955     761.5490     416.2431
   1417.89429     760.4680     416.8893   1417.89429     760.4680     416.8893
   1417.87903     761.9113     417.9539   1417.87903     761.9113     417.9539
   1417.86377     762.4833     417.8750   1417.86377     762.4833     417.8750
   1417.84851     764.5338     419.3737   1417.84851     764.5338     419.3737
   1417.83325     764.1134     420.3350   1417.83325     764.1134     420.3350
   1417.81799     763.7863     421.6664   1417.81799     763.7863     421.6664
   1417.80273     767.4097     421.9267   1417.80273     767.4097     421.9267
   1417.78748     767.0583     423.6004   1417.78748     767.0583     423.6004
   1417.77222     767.3393     423.3653   1417.77222     767.3393     423.3653
   1417.75696     768.1321     425.5224   1417.75696     768.1321     425.5224
   1417.74170     771.0437     425.7549   1417.74170     771.0437     425.7549
   1417.72644     771.0195     427.3606   1417.72644     771.0195     427.3606
   1417.71118     772.2310     427.1633   1417.71118     772.2310     427.1633
   1417.69592     770.6700     428.7650   1417.69592     770.6700     428.7650
   1417.68066     773.2151     429.6765   1417.68066     773.2151     429.6765
   1417.66541     773.3820     430.0465   1417.66541     773.3820     430.0465
   1417.65015     773.7498     431.9487   1417.65015     773.7498     431.9487
   1417.63489     776.0004     431.9464   1417.63489     776.0004     431.9464
   1417.61963     776.4271     433.6877   1417.61963     776.4271     433.6877
   1417.60437     775.8484     433.6760   1417.60437     775.8484     433.6760
   1417.58911     777.5148     435.1400   1417.58911     777.5148     435.1400
   1417.57385     779.5602     436.2644   1417.57385     779.5602     436.2644
   1417.55859     778.2900     436.9161   1417.55859     778.2900     436.9161
   1417.54333     779.8804     439.0104   1417.54333     779.8804     439.0104
   1417.52808     781.0331     439.8384   1417.52808     781.0331     439.8384
   1417.51282     781.0010     440.7906   1417.51282     781.0010     440.7906
   1417.49756     781.9067     441.4223   1417.49756     781.9067     441.4223
   1417.48230     783.3216     442.7105   1417.48230     783.3216     442.7105
   1417.46704     784.1606     443.9998   1417.46704     784.1606     443.9998
   1417.45178     784.0997     444.6546   1417.45178     784.0997     444.6546
   1417.43652     784.8604     445.2096   1417.43652     784.8604     445.2096
   1417.42126     785.8602     446.6388   1417.42126     785.8602     446.6388
   1417.40601     786.3076     447.7469   1417.40601     786.3076     447.7469
   1417.39075     786.8687     448.7605   1417.39075     786.8687     448.7605
   1417.37549     788.4325     449.8723   1417.37549     788.4325     449.8723
   1417.36023     789.6879     451.1472   1417.36023     789.6879     451.1472
   1417.34497     789.3063     451.9006   1417.34497     789.3063     451.9006
   1417.32971     790.3594     453.0342   1417.32971     790.3594     453.0342
   1417.31445     791.0283     454.2666   1417.31445     791.0283     454.2666
   1417.29919     790.0098     456.1213   1417.29919     790.0098     456.1213
   1417.28394     794.1357     455.8544   1417.28394     794.1357     455.8544
   1417.26868     792.7278     457.0168   1417.26868     792.7278     457.0168
   1417.25342     794.1552     458.9452   1417.25342     794.1552     458.9452
   1417.23816     794.8491     459.7281   1417.23816     794.8491     459.7281
   1417.22290     795.5281     461.9082   1417.22290     795.5281     461.9082
   1417.20764     795.8752     461.7002   1417.20764     795.8752     461.7002
   1417.19238     796.3273     463.5620   1417.19238     796.3273     463.5620
   1417.17712     795.4327     464.1457   1417.17712     795.4327     464.1457
   1417.16187     796.6797     464.7282   1417.16187     796.6797     464.7282
   1417.14661     797.3847     465.7043   1417.14661     797.3847     465.7043
   1417.13135     799.5055     466.8179   1417.13135     799.5055     466.8179
   1417.11609     799.5671     467.7080   1417.11609     799.5671     467.7080
   1417.10083     798.9021     469.0915   1417.10083     798.9021     469.0915
   1417.08557     800.1688     470.4435   1417.08557     800.1688     470.4435
   1417.07031     801.5597     471.5484   1417.07031     801.5597     471.5484
   1417.05505     801.3552     472.1154   1417.05505     801.3552     472.1154
   1417.03979     801.4031     473.5571   1417.03979     801.4031     473.5571
   1417.02454     801.8439     475.0349   1417.02454     801.8439     475.0349
   1417.00928     803.4652     474.5071   1417.00928     803.4652     474.5071
   1416.99402     802.8882     477.2958   1416.99402     802.8882     477.2958
   1416.97876     803.6169     478.9541   1416.97876     803.6169     478.9541
   1416.96350     804.4755     478.9567   1416.96350     804.4755     478.9567
   1416.94824     804.3207     480.0486   1416.94824     804.3207     480.0486
   1416.93298     804.1683     481.5031   1416.93298     804.1683     481.5031
   1416.91772     806.0437     482.0773   1416.91772     806.0437     482.0773
   1416.90247     805.2347     483.2914   1416.90247     805.2347     483.2914
   1416.88721     805.2819     484.1834   1416.88721     805.2819     484.1834
   1416.87195     806.8552     484.5033   1416.87195     806.8552     484.5033
   1416.85669     806.4721     485.9246   1416.85669     806.4721     485.9246
   1416.84143     807.5397     487.4427   1416.84143     807.5397     487.4427
   1416.82617     806.8405     487.8130   1416.82617     806.8405     487.8130
   1416.81091     807.7071     488.6668   1416.81091     807.7071     488.6668
   1416.79565     807.8019     489.8495   1416.79565     807.8019     489.8495
   1416.78040     808.3786     490.3167   1416.78040     808.3786     490.3167
   1416.76514     808.1893     491.0645   1416.76514     808.1893     491.0645
   1416.74988     808.3079     492.6827   1416.74988     808.3079     492.6827
   1416.73462     807.9311     492.9948   1416.73462     807.9311     492.9948
   1416.71936     808.5591     494.0255   1416.71936     808.5591     494.0255
   1416.70410     809.7958     494.4502   1416.70410     809.7958     494.4502
   1416.68884     809.3080     495.8841   1416.68884     809.3080     495.8841
   1416.67358     809.7234     496.9279   1416.67358     809.7234     496.9279
   1416.65833     809.2635     497.6695   1416.65833     809.2635     497.6695
   1416.64307     809.2939     498.8006   1416.64307     809.2939     498.8006
   1416.62781     811.0909     499.9315   1416.62781     811.0909     499.9315
   1416.61255     811.4825     499.4150   1416.61255     811.4825     499.4150
   1416.59729     809.3585     500.5042   1416.59729     809.3585     500.5042
   1416.58203     810.0695     501.8633   1416.58203     810.0695     501.8633
   1416.56677     810.7330     502.5408   1416.56677     810.7330     502.5408
   1416.55151     811.0219     503.4811   1416.55151     811.0219     503.4811
   1416.53625     810.0303     503.5104   1416.53625     810.0303     503.5104
   1416.52100     810.5836     504.6403   1416.52100     810.5836     504.6403
   1416.50574     810.1651     505.0646   1416.50574     810.1651     505.0646
   1416.49048     809.7614     505.9543   1416.49048     809.7614     505.9543
   1416.47522     809.6342     506.5170   1416.47522     809.6342     506.5170
   1416.45996     809.8879     506.6562   1416.45996     809.8879     506.6562
   1416.44470     809.3190     507.6180   1416.44470     809.3190     507.6180
   1416.42944     809.6902     508.2080   1416.42944     809.6902     508.2080
   1416.41418     810.2549     508.7896   1416.41418     810.2549     508.7896
   1416.39893     807.9756     508.6292   1416.39893     807.9756     508.6292
   1416.38367     809.0287     510.1331   1416.38367     809.0287     510.1331
   1416.36841     808.4263     510.4508   1416.36841     808.4263     510.4508
   1416.35315     807.6807     510.5119   1416.35315     807.6807     510.5119
   1416.33789     809.2206     511.3663   1416.33789     809.2206     511.3663
   1416.32263     807.6995     512.0264   1416.32263     807.6995     512.0264
   1416.30737     807.2115     512.3403   1416.30737     807.2115     512.3403
   1416.29211     807.9243     513.0424   1416.29211     807.9243     513.0424
   1416.27686     806.9998     513.1680   1416.27686     806.9998     513.1680
   1416.26160     806.7339     513.9186   1416.26160     806.7339     513.9186
   1416.24634     806.4730     514.0892   1416.24634     806.4730     514.0892
   1416.23108     806.7815     514.6218   1416.23108     806.7815     514.6218
   1416.21582     806.5175     513.7554   1416.21582     806.5175     513.7554
   1416.20056     805.0365     514.5518   1416.20056     805.0365     514.5518
   1416.18530     805.8336     515.9881   1416.18530     805.8336     515.9881
   1416.17004     804.8007     514.8228   1416.17004     804.8007     514.8228
   1416.15479     803.4651     516.1999   1416.15479     803.4651     516.1999
   1416.13953     803.2160     514.7554   1416.13953     803.2160     514.7554
   1416.12427     803.7768     516.9065   1416.12427     803.7768     516.9065
   1416.10901     803.1005     516.1644   1416.10901     803.1005     516.1644
   1416.09375     802.1145     516.7562   1416.09375     802.1145     516.7562
   1416.07849     802.4217     516.2049   1416.07849     802.4217     516.2049
   1416.06323     801.2991     517.1085   1416.06323     801.2991     517.1085
   1416.04797     799.4266     516.9185   1416.04797     799.4266     516.9185
   1416.03271     799.3135     517.6012   1416.03271     799.3135     517.6012
   1416.01746     799.5938     517.1242   1416.01746     799.5938     517.1242
   1416.00220     799.5775     517.8919   1416.00220     799.5775     517.8919
   1415.98694     799.0914     517.1791   1415.98694     799.0914     517.1791
   1415.97168     797.5712     517.8757   1415.97168     797.5712     517.8757
   1415.95642     798.0279     517.9019   1415.95642     798.0279     517.9019
   1415.94116     796.3834     518.2791   1415.94116     796.3834     518.2791
   1415.92590     795.2131     518.8156   1415.92590     795.2131     518.8156
   1415.91064     795.0082     517.9985   1415.91064     795.0082     517.9985
   1415.89539     792.1097     518.0507   1415.89539     792.1097     518.0507
   1415.88013     794.8621     518.2213   1415.88013     794.8621     518.2213
   1415.86487     793.3672     517.6965   1415.86487     793.3672     517.6965
   1415.84961     792.5108     517.4348   1415.84961     792.5108     517.4348
   1415.83435     791.8704     518.1134   1415.83435     791.8704     518.1134
   1415.81909     791.2549     517.8354   1415.81909     791.2549     517.8354
   1415.80383     790.5363     517.9559   1415.80383     790.5363     517.9559
   1415.78857     788.4722     518.1757   1415.78857     788.4722     518.1757
   1415.77332     788.5366     517.9970   1415.77332     788.5366     517.9970
   1415.75806     787.5722     518.5332   1415.75806     787.5722     518.5332
   1415.74280     786.2479     516.8133   1415.74280     786.2479     516.8133
   1415.72754     785.8890     517.5449   1415.72754     785.8890     517.5449
   1415.71228     784.1085     517.2683   1415.71228     784.1085     517.2683
   1415.69702     785.0458     518.2055   1415.69702     785.0458     518.2055
   1415.68176     784.1384     517.3457   1415.68176     784.1384     517.3457
   1415.66650     782.7150     516.3578   1415.66650     782.7150     516.3578
   1415.65125     783.3444     517.3487   1415.65125     783.3444     517.3487
   1415.63599     782.0004     515.8340   1415.63599     782.0004     515.8340
   1415.62073     780.1768     516.7298   1415.62073     780.1768     516.7298
   1415.60547     778.4543     516.3744   1415.60547     778.4543     516.3744
   1415.59021     778.7361     515.5196   1415.59021     778.7361     515.5196
   1415.57495     776.9149     515.6492   1415.57495     776.9149     515.6492
   1415.55969     776.0222     515.6970   1415.55969     776.0222     515.6970
   1415.54443     775.3809     515.3782   1415.54443     775.3809     515.3782
   1415.52917     775.2631     515.7963   1415.52917     775.2631     515.7963
   1415.51392     773.7718     514.5201   1415.51392     773.7718     514.5201
   1415.49866     773.3218     514.5029   1415.49866     773.3218     514.5029
   1415.48340     770.8249     514.9094   1415.48340     770.8249     514.9094
   1415.46814     771.5529     514.1284   1415.46814     771.5529     514.1284
   1415.45288     767.4756     514.1290   1415.45288     767.4756     514.1290
   1415.43762     767.4688     514.0461   1415.43762     767.4688     514.0461
   1415.42236     766.0407     513.7573   1415.42236     766.0407     513.7573
   1415.40710     765.4241     513.1165   1415.40710     765.4241     513.1165
   1415.39185     763.6861     512.9122   1415.39185     763.6861     512.9122
   1415.37659     763.6822     512.5614   1415.37659     763.6822     512.5614
   1415.36133     762.4962     512.0616   1415.36133     762.4962     512.0616
   1415.34607     760.9951     511.4753   1415.34607     760.9951     511.4753
   1415.33081     760.2188     511.5726   1415.33081     760.2188     511.5726
   1415.31555     759.6169     511.8271   1415.31555     759.6169     511.8271
   1415.30029     758.4644     511.0439   1415.30029     758.4644     511.0439
   1415.28503     756.9381     509.5083   1415.28503     756.9381     509.5083
   1415.26978     755.4706     510.2286   1415.26978     755.4706     510.2286
   1415.25452     754.6837     509.3336   1415.25452     754.6837     509.3336
   1415.23926     753.4423     509.1184   1415.23926     753.4423     509.1184
   1415.22400     752.4103     509.1226   1415.22400     752.4103     509.1226
   1415.20874     750.0334     507.9120   1415.20874     750.0334     507.9120
   1415.19348     748.2465     507.9155   1415.19348     748.2465     507.9155
   1415.17822     748.6490     507.5339   1415.17822     748.6490     507.5339
   1415.16296     746.7625     506.1787   1415.16296     746.7625     506.1787
   1415.14771     744.8113     506.3473   1415.14771     744.8113     506.3473
   1415.13245     744.4958     505.0365   1415.13245     744.4958     505.0365
   1415.11719     742.6230     504.2101   1415.11719     742.6230     504.2101
   1415.10193     741.5076     505.1208   1415.10193     741.5076     505.1208
   1415.08667     738.8830     503.9027   1415.08667     738.8830     503.9027
   1415.07141     738.9921     502.9254   1415.07141     738.9921     502.9254
   1415.05615     737.2084     502.9138   1415.05615     737.2084     502.9138
   1415.04089     736.2504     501.7479   1415.04089     736.2504     501.7479
   1415.02563     733.3242     501.0708   1415.02563     733.3242     501.0708
   1415.01038     732.5933     501.7496   1415.01038     732.5933     501.7496
   1414.99512     730.7698     501.5623   1414.99512     730.7698     501.5623
   1414.97986     728.7510     499.6678   1414.97986     728.7510     499.6678
   1414.96460     728.1433     498.9171   1414.96460     728.1433     498.9171
   1414.94934     725.5563     498.4174   1414.94934     725.5563     498.4174
   1414.93408     724.8445     497.7309   1414.93408     724.8445     497.7309
   1414.91882     721.7057     496.6815   1414.91882     721.7057     496.6815
   1414.90356     721.8771     496.3844   1414.90356     721.8771     496.3844
   1414.88831     718.8630     495.3830   1414.88831     718.8630     495.3830
   1414.87305     718.0873     494.8517   1414.87305     718.0873     494.8517
   1414.85779     715.5911     494.8689   1414.85779     715.5911     494.8689
   1414.84253     713.8907     493.2543   1414.84253     713.8907     493.2543
   1414.82727     712.7340     492.7595   1414.82727     712.7340     492.7595
   1414.81201     712.4601     492.2256   1414.81201     712.4601     492.2256
   1414.79675     709.9537     490.7256   1414.79675     709.9537     490.7256
   1414.78149     706.9898     489.7147   1414.78149     706.9898     489.7147
   1414.76624     706.4818     489.4284   1414.76624     706.4818     489.4284
   1414.75098     703.7949     488.0414   1414.75098     703.7949     488.0414
   1414.73572     703.2266     487.1428   1414.73572     703.2266     487.1428
   1414.72046     699.8745     486.9370   1414.72046     699.8745     486.9370
   1414.70520     697.8381     484.8342   1414.70520     697.8381     484.8342
   1414.68994     695.6448     484.3476   1414.68994     695.6448     484.3476
   1414.67468     695.3672     483.4669   1414.67468     695.3672     483.4669
   1414.65942     692.3081     482.5214   1414.65942     692.3081     482.5214
   1414.64417     690.8849     482.0673   1414.64417     690.8849     482.0673
   1414.62891     689.0728     480.6071   1414.62891     689.0728     480.6071
   1414.61365     687.6945     479.6540   1414.61365     687.6945     479.6540
   1414.59839     684.7039     478.9855   1414.59839     684.7039     478.9855
   1414.58313     682.2531     477.0942   1414.58313     682.2531     477.0942
   1414.56787     680.2438     477.2334   1414.56787     680.2438     477.2334
   1414.55261     678.9354     475.6068   1414.55261     678.9354     475.6068
   1414.53735     677.0773     473.7556   1414.53735     677.0773     473.7556
   1414.52209     674.1880     473.0067   1414.52209     674.1880     473.0067
   1414.50684     671.6466     472.8814   1414.50684     671.6466     472.8814
   1414.49158     670.1618     470.5677   1414.49158     670.1618     470.5677
   1414.47632     667.7311     469.5017   1414.47632     667.7311     469.5017
   1414.46106     666.2490     468.8274   1414.46106     666.2490     468.8274
   1414.44580     663.4941     467.9451   1414.44580     663.4941     467.9451
   1414.43054     661.1310     466.7585   1414.43054     661.1310     466.7585
   1414.41528     659.7316     465.2845   1414.41528     659.7316     465.2845
   1414.40002     656.5563     463.3416   1414.40002     656.5563     463.3416
   1414.38477     655.1569     462.4027   1414.38477     655.1569     462.4027
   1414.36951     652.4883     461.3790   1414.36951     652.4883     461.3790
   1414.35425     650.0419     460.4428   1414.35425     650.0419     460.4428
   1414.33899     647.2312     458.8750   1414.33899     647.2312     458.8750
   1414.32373     645.3987     457.1835   1414.32373     645.3987     457.1835
   1414.30847     643.4917     455.6445   1414.30847     643.4917     455.6445
   1414.29321     640.9446     454.5756   1414.29321     640.9446     454.5756
   1414.27795     638.4135     453.4223   1414.27795     638.4135     453.4223
   1414.26270     635.9294     451.8274   1414.26270     635.9294     451.8274
   1414.24744     632.1207     451.5224   1414.24744     632.1207     451.5224
   1414.23218     630.5828     449.5313   1414.23218     630.5828     449.5313
   1414.21692     628.2024     447.7466   1414.21692     628.2024     447.7466
   1414.20166     625.2442     446.1896   1414.20166     625.2442     446.1896
   1414.18640     623.5499     445.0392   1414.18640     623.5499     445.0392
   1414.17114     620.8306     443.3355   1414.17114     620.8306     443.3355
   1414.15588     617.3285     441.3480   1414.15588     617.3285     441.3480
   1414.14062     614.9824     440.1621   1414.14062     614.9824     440.1621
   1414.12537     612.5117     438.0354   1414.12537     612.5117     438.0354
   1414.11011     610.7356     437.3452   1414.11011     610.7356     437.3452
   1414.09485     607.4703     435.6740   1414.09485     607.4703     435.6740
   1414.07959     605.9444     434.9400   1414.07959     605.9444     434.9400
   1414.06433     602.8815     433.0927   1414.06433     602.8815     433.0927
   1414.04907     600.1748     432.0967   1414.04907     600.1748     432.0967
   1414.03381     598.0410     430.3337   1414.03381     598.0410     430.3337
   1414.01855     595.5266     427.9625   1414.01855     595.5266     427.9625
   1414.00330     622.8911     435.9205   1414.00330     622.8911     435.9205
   1413.98804     591.1309     426.0717   1413.98804     591.1309     426.0717
   1413.97278     586.7117     424.1448   1413.97278     586.7117     424.1448
   1413.95752     584.1152     421.9760   1413.95752     584.1152     421.9760
   1413.94226     580.8500     420.4974   1413.94226     580.8500     420.4974
   1413.92700     578.7220     418.7594   1413.92700     578.7220     418.7594
   1413.91174     575.7048     417.2824   1413.91174     575.7048     417.2824
   1413.89648     573.1755     415.3717   1413.89648     573.1755     415.3717
   1413.88123     570.7472     413.4135   1413.88123     570.7472     413.4135
   1413.86597     567.1095     412.2949   1413.86597     567.1095     412.2949
   1413.85071     564.8042     410.2478   1413.85071     564.8042     410.2478
   1413.83545     562.1294     408.7481   1413.83545     562.1294     408.7481
   1413.82019     559.8358     407.0382   1413.82019     559.8358     407.0382
   1413.80493     556.1499     405.4437   1413.80493     556.1499     405.4437
   1413.78967     553.8669     404.2022   1413.78967     553.8669     404.2022
   1413.77441     551.2322     402.0919   1413.77441     551.2322     402.0919
   1413.75916     548.5806     400.4945   1413.75916     548.5806     400.4945
   1413.74390     545.1518     398.6315   1413.74390     545.1518     398.6315
   1413.72864     541.8605     396.9904   1413.72864     541.8605     396.9904
   1413.71338     539.6713     395.8492   1413.71338     539.6713     395.8492
   1413.69812     536.6994     393.5280   1413.69812     536.6994     393.5280
   1413.68286     533.5308     392.8174   1413.68286     533.5308     392.8174
   1413.66760     531.5802     390.6932   1413.66760     531.5802     390.6932
   1413.65234     528.1597     388.9976   1413.65234     528.1597     388.9976
   1413.63708     524.5997     387.0807   1413.63708     524.5997     387.0807
   1413.62183     522.7984     385.5786   1413.62183     522.7984     385.5786
   1413.60657     520.1015     384.0735   1413.60657     520.1015     384.0735
   1413.59131     517.4118     381.8195   1413.59131     517.4118     381.8195
   1413.57605     514.6342     380.2670   1413.57605     514.6342     380.2670
   1413.56079     512.6433     378.9216   1413.56079     512.6433     378.9216
   1413.54553     508.5922     377.2794   1413.54553     508.5922     377.2794
   1413.53027     505.2169     375.5522   1413.53027     505.2169     375.5522
   1413.51501     503.5998     374.1393   1413.51501     503.5998     374.1393
   1413.49976     499.6906     372.2084   1413.49976     499.6906     372.2084
   1413.48450     497.9995     370.8603   1413.48450     497.9995     370.8603
   1413.46924     494.8963     369.2606   1413.46924     494.8963     369.2606
   1413.45398     492.0621     367.2280   1413.45398     492.0621     367.2280
   1413.43872     489.2553     365.0651   1413.43872     489.2553     365.0651
   1413.42346     487.3753     364.3442   1413.42346     487.3753     364.3442
   1413.40820     484.6667     363.0197   1413.40820     484.6667     363.0197
   1413.39294     481.4111     360.6909   1413.39294     481.4111     360.6909
   1413.37769     479.0302     358.7722   1413.37769     479.0302     358.7722
   1413.36243     476.1880     357.6744   1413.36243     476.1880     357.6744
   1413.34717     473.9226     356.2050   1413.34717     473.9226     356.2050
   1413.33191     471.0546     354.6340   1413.33191     471.0546     354.6340
   1413.31665     468.4702     353.2662   1413.31665     468.4702     353.2662
   1413.30139     465.9788     351.4416   1413.30139     465.9788     351.4416
   1413.28613     462.3164     350.5443   1413.28613     462.3164     350.5443
   1413.27087     460.4381     349.1684   1413.27087     460.4381     349.1684
   1413.25562     458.7880     348.0557   1413.25562     458.7880     348.0557
   1413.24036     455.5509     346.0414   1413.24036     455.5509     346.0414
   1413.22510     454.0395     345.0804   1413.22510     454.0395     345.0804
   1413.20984     451.0492     343.3003   1413.20984     451.0492     343.3003
   1413.19458     448.6213     342.5739   1413.19458     448.6213     342.5739
   1413.17932     446.6827     340.4024   1413.17932     446.6827     340.4024
   1413.16406     444.4220     339.7706   1413.16406     444.4220     339.7706
   1413.14880     442.0576     337.9178   1413.14880     442.0576     337.9178
   1413.13354     439.1741     337.4561   1413.13354     439.1741     337.4561
   1413.11829     436.9715     336.2772   1413.11829     436.9715     336.2772
   1413.10303     434.5322     334.9016   1413.10303     434.5322     334.9016
   1413.08777     432.3488     333.1320   1413.08777     432.3488     333.1320
   1413.07251     429.8580     332.2258   1413.07251     429.8580     332.2258
   1413.05725     428.1166     331.2263   1413.05725     428.1166     331.2263
   1413.04199     426.2517     329.7920   1413.04199     426.2517     329.7920
   1413.02673     423.3542     328.9605   1413.02673     423.3542     328.9605
   1413.01147     421.7138     327.8219   1413.01147     421.7138     327.8219
   1412.99622     419.9620     326.8971   1412.99622     419.9620     326.8971
   1412.98096     416.9901     326.0028   1412.98096     416.9901     326.0028
   1412.96570     416.0251     324.8380   1412.96570     416.0251     324.8380
   1412.95044     414.3957     324.2705   1412.95044     414.3957     324.2705
   1412.93518     411.7613     323.5272   1412.93518     411.7613     323.5272
   1412.91992     410.0238     323.1141   1412.91992     410.0238     323.1141
   1412.90466     408.4655     322.0266   1412.90466     408.4655     322.0266
   1412.88940     406.7083     321.4648   1412.88940     406.7083     321.4648
   1412.87415     404.9630     320.9077   1412.87415     404.9630     320.9077
   1412.85889     402.7165     319.7644   1412.85889     402.7165     319.7644
   1412.84363     401.4059     319.2596   1412.84363     401.4059     319.2596
   1412.82837     399.4818     318.8282   1412.82837     399.4818     318.8282
   1412.81311     398.7056     317.5698   1412.81311     398.7056     317.5698
   1412.79785     396.3243     317.5780   1412.79785     396.3243     317.5780
   1412.78259     395.7498     317.3188   1412.78259     395.7498     317.3188
   1412.76733     394.1247     316.1996   1412.76733     394.1247     316.1996
   1412.75208     392.9233     316.8783   1412.75208     392.9233     316.8783
   1412.73682     392.1995     316.0038   1412.73682     392.1995     316.0038
   1412.72156     390.0607     316.1443   1412.72156     390.0607     316.1443
   1412.70630     389.3810     315.5762   1412.70630     389.3810     315.5762
   1412.69104     387.6392     315.6408   1412.69104     387.6392     315.6408
   1412.67578     386.6492     315.1779   1412.67578     386.6492     315.1779
   1412.66052     384.9992     315.5491   1412.66052     384.9992     315.5491
   1412.64526     384.0880     315.5688   1412.64526     384.0880     315.5688
   1412.63000     383.1795     315.4574   1412.63000     383.1795     315.4574
   1412.61475     382.8895     314.9218   1412.61475     382.8895     314.9218
   1412.59949     381.4453     315.5882   1412.59949     381.4453     315.5882
   1412.58423     380.9503     315.6097   1412.58423     380.9503     315.6097
   1412.56897     379.7615     316.0598   1412.56897     379.7615     316.0598
   1412.55371     379.3304     316.1972   1412.55371     379.3304     316.1972
   1412.53845     378.7903     316.3241   1412.53845     378.7903     316.3241
   1412.52319     378.0824     316.6385   1412.52319     378.0824     316.6385
   1412.50793     376.9633     316.9765   1412.50793     376.9633     316.9765
   1412.49268     377.1641     317.6148   1412.49268     377.1641     317.6148
   1412.47742     376.6323     317.9032   1412.47742     376.6323     317.9032
   1412.46216     376.0201     318.4422   1412.46216     376.0201     318.4422
   1412.44690     375.9980     319.5289   1412.44690     375.9980     319.5289
   1412.43164     375.5941     320.0381   1412.43164     375.5941     320.0381
   1412.41638     375.6876     320.6830   1412.41638     375.6876     320.6830
   1412.40112     375.5262     321.4272   1412.40112     375.5262     321.4272
   1412.38586     375.7836     322.3758   1412.38586     375.7836     322.3758
   1412.37061     375.0654     322.7887   1412.37061     375.0654     322.7887
   1412.35535     374.8760     323.4062   1412.35535     374.8760     323.4062
   1412.34009     374.6755     324.8766   1412.34009     374.6755     324.8766
   1412.32483     375.0477     325.4329   1412.32483     375.0477     325.4329
   1412.30957     375.0685     327.1946   1412.30957     375.0685     327.1946
   1412.29431     375.2800     328.1724   1412.29431     375.2800     328.1724
   1412.27905     375.8946     328.6096   1412.27905     375.8946     328.6096
   1412.26379     375.5572     330.1410   1412.26379     375.5572     330.1410
   1412.24854     376.3744     331.4359   1412.24854     376.3744     331.4359
   1412.23328     376.9414     332.7083   1412.23328     376.9414     332.7083
   1412.21802     377.3563     333.9598   1412.21802     377.3563     333.9598
   1412.20276     377.3375     335.8429   1412.20276     377.3375     335.8429