#     FILENAME=!Skynet_57533_lach-hhg-166-2_20782_21203.cyb.fits
#     BASENAME=Skynet_57533_lach-hhg-166-2_20782_21203
#     SRC_NAME=lach-hhg-166-2
#     OBSERVER=ccmadison16_9505
#     DATE_OBS=2016-05-25T18:21:59.680
#        OBSID=20782
#      SCANNUM=21203
#          MJD=57533.7663
#          UTC=66209
#     SCANTYPE=track
#     DATAMODE=HIRES
#     TUNEFREQ=1420.0000
# Actual_FREQ1=1420.0000
# Actual_FREQ2=1420.0000
#    LO1Tuning=6870.000
#     RFFILTER=1355_1435
#        OBSBW=-15.6250
#        NCHAN=1024 
#        FOCUS=37.0489
#           RA=05:07:21.17
#          DEC=40:33:17.01
#      RA(hrs)=5.122500
#     DEC(deg)=40.554700
#    AZIM(deg)=320.757
#    ELEV(deg)=87.156
#     IFattens=10.00, 10.00
#      WARNING=None
#    TCAL_XL1=7.9635
#    TCAL_YR1=9.1340
#    TCAL_XL2=7.9635
#    TCAL_YR2=9.1340
#     TRX_XL1=11.7060
#     TRX_YR1=11.7060
#     TRX_XL2=11.7060
#     TRX_YR2=11.7060
#        TAVE=1.0000
#Freq1(MHz)          XL1          YR1  Freq2(MHz)          XL2          YR2 

   1427.81250     293.4678     269.5032   1427.81250     293.4678     269.5032
   1427.79724     293.9181     270.1270   1427.79724     293.9181     270.1270
   1427.78198     294.5428     271.8101   1427.78198     294.5428     271.8101
   1427.76672     295.0795     272.7819   1427.76672     295.0795     272.7819
   1427.75146     295.8211     274.1254   1427.75146     295.8211     274.1254
   1427.73621     296.2117     275.2616   1427.73621     296.2117     275.2616
   1427.72095     296.8983     276.1646   1427.72095     296.8983     276.1646
   1427.70569     297.8579     277.5042   1427.70569     297.8579     277.5042
   1427.69043     298.7128     279.2904   1427.69043     298.7128     279.2904
   1427.67517     299.5538     280.5205   1427.67517     299.5538     280.5205
   1427.65991     300.6288     281.8304   1427.65991     300.6288     281.8304
   1427.64465     301.0667     283.4114   1427.64465     301.0667     283.4114
   1427.62939     302.1113     284.8694   1427.62939     302.1113     284.8694
   1427.61414     303.5408     286.2719   1427.61414     303.5408     286.2719
   1427.59888     304.5104     288.4353   1427.59888     304.5104     288.4353
   1427.58362     305.6678     289.6052   1427.58362     305.6678     289.6052
   1427.56836     306.7533     291.8214   1427.56836     306.7533     291.8214
   1427.55310     307.8433     293.0834   1427.55310     307.8433     293.0834
   1427.53784     309.2533     295.5077   1427.53784     309.2533     295.5077
   1427.52258     310.3445     297.1487   1427.52258     310.3445     297.1487
   1427.50732     312.0328     299.2134   1427.50732     312.0328     299.2134
   1427.49207     313.2933     300.9415   1427.49207     313.2933     300.9415
   1427.47681     314.0625     303.2656   1427.47681     314.0625     303.2656
   1427.46155     316.4674     305.4977   1427.46155     316.4674     305.4977
   1427.44629     317.3094     307.1485   1427.44629     317.3094     307.1485
   1427.43103     319.5270     309.3590   1427.43103     319.5270     309.3590
   1427.41577     320.6897     311.2576   1427.41577     320.6897     311.2576
   1427.40051     321.5767     313.7078   1427.40051     321.5767     313.7078
   1427.38525     323.6945     315.8805   1427.38525     323.6945     315.8805
   1427.37000     325.1440     318.7594   1427.37000     325.1440     318.7594
   1427.35474     327.1030     320.6562   1427.35474     327.1030     320.6562
   1427.33948     328.9497     323.4329   1427.33948     328.9497     323.4329
   1427.32422     330.7864     325.8050   1427.32422     330.7864     325.8050
   1427.30896     331.8152     328.3494   1427.30896     331.8152     328.3494
   1427.29370     334.7892     330.2768   1427.29370     334.7892     330.2768
   1427.27844     335.3819     333.6205   1427.27844     335.3819     333.6205
   1427.26318     338.0147     335.8452   1427.26318     338.0147     335.8452
   1427.24792     340.4550     338.3672   1427.24792     340.4550     338.3672
   1427.23267     341.6473     341.1817   1427.23267     341.6473     341.1817
   1427.21741     343.7500     343.9625   1427.21741     343.7500     343.9625
   1427.20215     345.8567     346.7097   1427.20215     345.8567     346.7097
   1427.18689     348.2475     349.1472   1427.18689     348.2475     349.1472
   1427.17163     350.2609     351.7977   1427.17163     350.2609     351.7977
   1427.15637     352.6953     354.8734   1427.15637     352.6953     354.8734
   1427.14111     354.6017     358.6461   1427.14111     354.6017     358.6461
   1427.12585     356.2818     360.5847   1427.12585     356.2818     360.5847
   1427.11060     358.9940     363.5050   1427.11060     358.9940     363.5050
   1427.09534     361.2796     366.4787   1427.09534     361.2796     366.4787
   1427.08008     363.5233     369.5774   1427.08008     363.5233     369.5774
   1427.06482     365.3705     371.8872   1427.06482     365.3705     371.8872
   1427.04956     368.2436     375.0620   1427.04956     368.2436     375.0620
   1427.03430     370.2255     378.1711   1427.03430     370.2255     378.1711
   1427.01904     373.0313     381.1759   1427.01904     373.0313     381.1759
   1427.00378     374.5588     383.9218   1427.00378     374.5588     383.9218
   1426.98853     377.3764     387.3160   1426.98853     377.3764     387.3160
   1426.97327     379.9464     390.6342   1426.97327     379.9464     390.6342
   1426.95801     382.2976     393.2825   1426.95801     382.2976     393.2825
   1426.94275     384.9861     397.0720   1426.94275     384.9861     397.0720
   1426.92749     387.0654     399.9673   1426.92749     387.0654     399.9673
   1426.91223     389.3945     402.3184   1426.91223     389.3945     402.3184
   1426.89697     392.3101     405.9789   1426.89697     392.3101     405.9789
   1426.88171     394.7113     409.2339   1426.88171     394.7113     409.2339
   1426.86646     397.1644     413.0148   1426.86646     397.1644     413.0148
   1426.85120     399.8699     415.2717   1426.85120     399.8699     415.2717
   1426.83594     402.3581     418.1924   1426.83594     402.3581     418.1924
   1426.82068     404.4797     421.6872   1426.82068     404.4797     421.6872
   1426.80542     407.6082     424.3479   1426.80542     407.6082     424.3479
   1426.79016     409.8148     427.8251   1426.79016     409.8148     427.8251
   1426.77490     412.2851     430.3710   1426.77490     412.2851     430.3710
   1426.75964     415.1227     433.8613   1426.75964     415.1227     433.8613
   1426.74438     418.6920     437.6627   1426.74438     418.6920     437.6627
   1426.72913     420.5992     440.0139   1426.72913     420.5992     440.0139
   1426.71387     423.3069     442.5084   1426.71387     423.3069     442.5084
   1426.69861     425.3377     445.6522   1426.69861     425.3377     445.6522
   1426.68335     428.0832     448.4924   1426.68335     428.0832     448.4924
   1426.66809     431.4710     452.2508   1426.66809     431.4710     452.2508
   1426.65283     433.3705     454.4924   1426.65283     433.3705     454.4924
   1426.63757     435.3865     457.8174   1426.63757     435.3865     457.8174
   1426.62231     439.7567     463.2006   1426.62231     439.7567     463.2006
   1426.60706     442.1738     464.5129   1426.60706     442.1738     464.5129
   1426.59180     444.1237     467.4000   1426.59180     444.1237     467.4000
   1426.57654     446.9890     470.0281   1426.57654     446.9890     470.0281
   1426.56128     448.8579     472.9346   1426.56128     448.8579     472.9346
   1426.54602     451.6952     474.8394   1426.54602     451.6952     474.8394
   1426.53076     454.4487     478.1577   1426.53076     454.4487     478.1577
   1426.51550     457.0128     481.2761   1426.51550     457.0128     481.2761
   1426.50024     459.8372     483.8459   1426.50024     459.8372     483.8459
   1426.48499     461.8330     486.4969   1426.48499     461.8330     486.4969
   1426.46973     463.6596     489.1002   1426.46973     463.6596     489.1002
   1426.45447     466.8643     491.1557   1426.45447     466.8643     491.1557
   1426.43921     469.7995     493.8676   1426.43921     469.7995     493.8676
   1426.42395     472.7033     497.1291   1426.42395     472.7033     497.1291
   1426.40869     474.6151     499.1051   1426.40869     474.6151     499.1051
   1426.39343     477.6499     502.4602   1426.39343     477.6499     502.4602
   1426.37817     479.9389     505.1153   1426.37817     479.9389     505.1153
   1426.36292     481.9929     507.0814   1426.36292     481.9929     507.0814
   1426.34766     485.0615     509.6336   1426.34766     485.0615     509.6336
   1426.33240     487.2837     512.0066   1426.33240     487.2837     512.0066
   1426.31714     489.8845     514.0342   1426.31714     489.8845     514.0342
   1426.30188     492.0354     517.2523   1426.30188     492.0354     517.2523
   1426.28662     493.7873     518.3392   1426.28662     493.7873     518.3392
   1426.27136     496.6654     521.8616   1426.27136     496.6654     521.8616
   1426.25610     499.8388     523.7470   1426.25610     499.8388     523.7470
   1426.24084     503.1039     525.3492   1426.24084     503.1039     525.3492
   1426.22559     504.5796     526.5363   1426.22559     504.5796     526.5363
   1426.21033     506.8902     529.8178   1426.21033     506.8902     529.8178
   1426.19507     508.6901     532.1683   1426.19507     508.6901     532.1683
   1426.17981     511.4051     534.1596   1426.17981     511.4051     534.1596
   1426.16455     513.6154     535.6042   1426.16455     513.6154     535.6042
   1426.14929     515.8469     538.3593   1426.14929     515.8469     538.3593
   1426.13403     518.4188     539.6963   1426.13403     518.4188     539.6963
   1426.11877     520.1207     541.3301   1426.11877     520.1207     541.3301
   1426.10352     522.8931     543.7125   1426.10352     522.8931     543.7125
   1426.08826     525.6075     544.2527   1426.08826     525.6075     544.2527
   1426.07300     526.4454     546.3354   1426.07300     526.4454     546.3354
   1426.05774     528.4727     547.8011   1426.05774     528.4727     547.8011
   1426.04248     531.5124     549.2650   1426.04248     531.5124     549.2650
   1426.02722     532.7874     551.3057   1426.02722     532.7874     551.3057
   1426.01196     535.7117     552.6899   1426.01196     535.7117     552.6899
   1425.99670     537.8232     554.2119   1425.99670     537.8232     554.2119
   1425.98145     539.1608     555.4561   1425.98145     539.1608     555.4561
   1425.96619     542.5137     557.4315   1425.96619     542.5137     557.4315
   1425.95093     543.4745     559.1916   1425.95093     543.4745     559.1916
   1425.93567     546.2552     559.8110   1425.93567     546.2552     559.8110
   1425.92041     546.4236     561.0057   1425.92041     546.4236     561.0057
   1425.90515     548.8741     563.3044   1425.90515     548.8741     563.3044
   1425.88989     551.7083     564.1054   1425.88989     551.7083     564.1054
   1425.87463     552.7422     565.0308   1425.87463     552.7422     565.0308
   1425.85938     555.3864     565.9622   1425.85938     555.3864     565.9622
   1425.84412     556.4187     567.7843   1425.84412     556.4187     567.7843
   1425.82886     558.6730     568.0013   1425.82886     558.6730     568.0013
   1425.81360     560.3248     568.9620   1425.81360     560.3248     568.9620
   1425.79834     563.0080     569.8421   1425.79834     563.0080     569.8421
   1425.78308     563.4956     571.0449   1425.78308     563.4956     571.0449
   1425.76782     565.0264     571.2654   1425.76782     565.0264     571.2654
   1425.75256     566.9497     572.6992   1425.75256     566.9497     572.6992
   1425.73730     568.3704     573.3521   1425.73730     568.3704     573.3521
   1425.72205     570.2246     574.7306   1425.72205     570.2246     574.7306
   1425.70679     571.2769     575.2317   1425.70679     571.2769     575.2317
   1425.69153     573.1939     575.1730   1425.69153     573.1939     575.1730
   1425.67627     574.9070     575.7327   1425.67627     574.9070     575.7327
   1425.66101     575.4349     577.2549   1425.66101     575.4349     577.2549
   1425.64575     578.4751     577.7535   1425.64575     578.4751     577.7535
   1425.63049     578.8421     577.4807   1425.63049     578.8421     577.4807
   1425.61523     580.8699     578.8281   1425.61523     580.8699     578.8281
   1425.59998     581.4070     578.6170   1425.59998     581.4070     578.6170
   1425.58472     583.3594     579.1118   1425.58472     583.3594     579.1118
   1425.56946     584.9561     580.5107   1425.56946     584.9561     580.5107
   1425.55420     584.0399     580.2681   1425.55420     584.0399     580.2681
   1425.53894     586.7253     580.6026   1425.53894     586.7253     580.6026
   1425.52368     587.4651     580.6284   1425.52368     587.4651     580.6284
   1425.50842     590.4813     581.7102   1425.50842     590.4813     581.7102
   1425.49316     590.7732     582.1613   1425.49316     590.7732     582.1613
   1425.47791     591.8871     580.6840   1425.47791     591.8871     580.6840
   1425.46265     593.0278     582.3031   1425.46265     593.0278     582.3031
   1425.44739     593.7599     582.0070   1425.44739     593.7599     582.0070
   1425.43213     594.2440     582.5693   1425.43213     594.2440     582.5693
   1425.41687     596.0692     582.7916   1425.41687     596.0692     582.7916
   1425.40161     596.3157     583.3384   1425.40161     596.3157     583.3384
   1425.38635     598.4609     582.5718   1425.38635     598.4609     582.5718
   1425.37109     598.2379     581.9791   1425.37109     598.2379     581.9791
   1425.35583     599.5342     583.0097   1425.35583     599.5342     583.0097
   1425.34058     600.3979     583.2122   1425.34058     600.3979     583.2122
   1425.32532     601.0084     581.7473   1425.32532     601.0084     581.7473
   1425.31006     602.0090     582.6032   1425.31006     602.0090     582.6032
   1425.29480     602.9687     583.3398   1425.29480     602.9687     583.3398
   1425.27954     602.8977     582.9097   1425.27954     602.8977     582.9097
   1425.26428     603.7214     582.9948   1425.26428     603.7214     582.9948
   1425.24902     604.8357     582.9879   1425.24902     604.8357     582.9879
   1425.23376     606.3906     581.8322   1425.23376     606.3906     581.8322
   1425.21851     605.7668     581.5184   1425.21851     605.7668     581.5184
   1425.20325     606.4610     582.5679   1425.20325     606.4610     582.5679
   1425.18799     607.4819     581.6675   1425.18799     607.4819     581.6675
   1425.17273     607.5537     581.6881   1425.17273     607.5537     581.6881
   1425.15747     607.7769     581.4749   1425.15747     607.7769     581.4749
   1425.14221     609.2500     581.4070   1425.14221     609.2500     581.4070
   1425.12695     609.2562     582.1731   1425.12695     609.2562     582.1731
   1425.11169     609.7757     580.6085   1425.11169     609.7757     580.6085
   1425.09644     610.9914     579.3010   1425.09644     610.9914     579.3010
   1425.08118     611.5258     580.3569   1425.08118     611.5258     580.3569
   1425.06592     611.5730     580.6658   1425.06592     611.5730     580.6658
   1425.05066     612.1917     579.0315   1425.05066     612.1917     579.0315
   1425.03540     612.6096     578.7302   1425.03540     612.6096     578.7302
   1425.02014     612.9756     578.4277   1425.02014     612.9756     578.4277
   1425.00488     612.6851     578.2765   1425.00488     612.6851     578.2765
   1424.98962     613.4518     577.4929   1424.98962     613.4518     577.4929
   1424.97437     613.0118     577.9775   1424.97437     613.0118     577.9775
   1424.95911     613.3886     576.4645   1424.95911     613.3886     576.4645
   1424.94385     612.9124     575.5593   1424.94385     612.9124     575.5593
   1424.92859     613.6135     575.9478   1424.92859     613.6135     575.9478
   1424.91333     613.8813     575.3331   1424.91333     613.8813     575.3331
   1424.89807     614.5594     574.5916   1424.89807     614.5594     574.5916
   1424.88281     614.6032     575.6284   1424.88281     614.6032     575.6284
   1424.86755     614.5021     574.7166   1424.86755     614.5021     574.7166
   1424.85229     613.7242     574.5018   1424.85229     613.7242     574.5018
   1424.83704     614.2764     574.2432   1424.83704     614.2764     574.2432
   1424.82178     615.2053     572.4861   1424.82178     615.2053     572.4861
   1424.80652     615.1138     572.9027   1424.80652     615.1138     572.9027
   1424.79126     615.9008     571.2564   1424.79126     615.9008     571.2564
   1424.77600     615.1326     571.4584   1424.77600     615.1326     571.4584
   1424.76074     615.0502     571.0561   1424.76074     615.0502     571.0561
   1424.74548     614.4399     570.7216   1424.74548     614.4399     570.7216
   1424.73022     615.7919     570.0131   1424.73022     615.7919     570.0131
   1424.71497     614.6340     568.8896   1424.71497     614.6340     568.8896
   1424.69971     614.9557     567.8019   1424.69971     614.9557     567.8019
   1424.68445     614.4943     568.0823   1424.68445     614.4943     568.0823
   1424.66919     614.3582     566.8845   1424.66919     614.3582     566.8845
   1424.65393     614.4251     566.7929   1424.65393     614.4251     566.7929
   1424.63867     614.4935     565.2784   1424.63867     614.4935     565.2784
   1424.62341     613.9914     565.1152   1424.62341     613.9914     565.1152
   1424.60815     614.5762     564.4194   1424.60815     614.5762     564.4194
   1424.59290     614.7537     564.1429   1424.59290     614.7537     564.1429
   1424.57764     614.1539     563.8160   1424.57764     614.1539     563.8160
   1424.56238     614.1047     563.0555   1424.56238     614.1047     563.0555
   1424.54712     613.1189     562.6867   1424.54712     613.1189     562.6867
   1424.53186     613.7359     561.6735   1424.53186     613.7359     561.6735
   1424.51660     612.7746     561.6189   1424.51660     612.7746     561.6189
   1424.50134     612.4472     559.7542   1424.50134     612.4472     559.7542
   1424.48608     613.1860     559.9622   1424.48608     613.1860     559.9622
   1424.47083     612.9635     558.9914   1424.47083     612.9635     558.9914
   1424.45557     611.6889     558.4829   1424.45557     611.6889     558.4829
   1424.44031     611.5320     558.4460   1424.44031     611.5320     558.4460
   1424.42505     610.5753     557.6210   1424.42505     610.5753     557.6210
   1424.40979     610.5622     556.8958   1424.40979     610.5622     556.8958
   1424.39453     611.5529     556.9447   1424.39453     611.5529     556.9447
   1424.37927     611.2460     555.1783   1424.37927     611.2460     555.1783
   1424.36401     610.5820     554.8826   1424.36401     610.5820     554.8826
   1424.34875     609.6670     554.6112   1424.34875     609.6670     554.6112
   1424.33350     610.3137     553.2601   1424.33350     610.3137     553.2601
   1424.31824     609.3430     553.0920   1424.31824     609.3430     553.0920
   1424.30298     608.9670     551.4631   1424.30298     608.9670     551.4631
   1424.28772     609.1371     550.8082   1424.28772     609.1371     550.8082
   1424.27246     607.7556     550.5574   1424.27246     607.7556     550.5574
   1424.25720     607.5714     550.1368   1424.25720     607.5714     550.1368
   1424.24194     607.9389     549.2841   1424.24194     607.9389     549.2841
   1424.22668     607.3355     548.7440   1424.22668     607.3355     548.7440
   1424.21143     606.9102     548.4722   1424.21143     606.9102     548.4722
   1424.19617     606.3853     546.5516   1424.19617     606.3853     546.5516
   1424.18091     606.8445     546.9552   1424.18091     606.8445     546.9552
   1424.16565     606.1499     545.6416   1424.16565     606.1499     545.6416
   1424.15039     605.0941     545.9970   1424.15039     605.0941     545.9970
   1424.13513     604.1794     544.5934   1424.13513     604.1794     544.5934
   1424.11987     603.4061     543.3186   1424.11987     603.4061     543.3186
   1424.10461     605.0377     542.4241   1424.10461     605.0377     542.4241
   1424.08936     603.6907     542.2055   1424.08936     603.6907     542.2055
   1424.07410     602.7207     541.5057   1424.07410     602.7207     541.5057
   1424.05884     602.6124     540.3278   1424.05884     602.6124     540.3278
   1424.04358     601.8267     540.4848   1424.04358     601.8267     540.4848
   1424.02832     601.1569     539.2634   1424.02832     601.1569     539.2634
   1424.01306     602.0498     538.3749   1424.01306     602.0498     538.3749
   1423.99780     601.3023     538.0350   1423.99780     601.3023     538.0350
   1423.98254     600.0865     537.9187   1423.98254     600.0865     537.9187
   1423.96729     599.9155     536.7380   1423.96729     599.9155     536.7380
   1423.95203     599.0137     536.4136   1423.95203     599.0137     536.4136
   1423.93677     599.1292     534.2126   1423.93677     599.1292     534.2126
   1423.92151     598.5012     534.4554   1423.92151     598.5012     534.4554
   1423.90625     597.4133     532.4736   1423.90625     597.4133     532.4736
   1423.89099     597.0303     532.2479   1423.89099     597.0303     532.2479
   1423.87573     596.5981     531.9939   1423.87573     596.5981     531.9939
   1423.86047     595.8171     530.8936   1423.86047     595.8171     530.8936
   1423.84521     596.4468     531.4836   1423.84521     596.4468     531.4836
   1423.82996     595.0591     530.1069   1423.82996     595.0591     530.1069
   1423.81470     594.7980     528.7422   1423.81470     594.7980     528.7422
   1423.79944     595.0844     528.7341   1423.79944     595.0844     528.7341
   1423.78418     593.6894     528.3233   1423.78418     593.6894     528.3233
   1423.76892     593.2293     526.3627   1423.76892     593.2293     526.3627
   1423.75366     593.3729     525.7598   1423.75366     593.3729     525.7598
   1423.73840     593.2797     525.2280   1423.73840     593.2797     525.2280
   1423.72314     592.9098     524.7337   1423.72314     592.9098     524.7337
   1423.70789     592.1926     523.4252   1423.70789     592.1926     523.4252
   1423.69263     591.2236     523.1251   1423.69263     591.2236     523.1251
   1423.67737     591.3235     522.8448   1423.67737     591.3235     522.8448
   1423.66211     590.9694     522.0381   1423.66211     590.9694     522.0381
   1423.64685     590.9532     521.7195   1423.64685     590.9532     521.7195
   1423.63159     588.8137     519.7379   1423.63159     588.8137     519.7379
   1423.61633     589.6758     519.0646   1423.61633     589.6758     519.0646
   1423.60107     588.3545     519.6210   1423.60107     588.3545     519.6210
   1423.58582     588.4566     517.8491   1423.58582     588.4566     517.8491
   1423.57056     587.6452     516.3203   1423.57056     587.6452     516.3203
   1423.55530     588.3337     515.9493   1423.55530     588.3337     515.9493
   1423.54004     587.7758     515.2034   1423.54004     587.7758     515.2034
   1423.52478     586.2571     514.6711   1423.52478     586.2571     514.6711
   1423.50952     586.2751     513.7819   1423.50952     586.2751     513.7819
   1423.49426     586.3218     512.9439   1423.49426     586.3218     512.9439
   1423.47900     586.0068     511.5973   1423.47900     586.0068     511.5973
   1423.46375     583.7144     511.1907   1423.46375     583.7144     511.1907
   1423.44849     585.4349     510.8807   1423.44849     585.4349     510.8807
   1423.43323     583.6802     509.6207   1423.43323     583.6802     509.6207
   1423.41797     583.0377     508.9039   1423.41797     583.0377     508.9039
   1423.40271     583.4386     508.5017   1423.40271     583.4386     508.5017
   1423.38745     582.8114     507.6603   1423.38745     582.8114     507.6603
   1423.37219     583.4616     505.8082   1423.37219     583.4616     505.8082
   1423.35693     582.1055     506.0303   1423.35693     582.1055     506.0303
   1423.34167     581.6086     503.8429   1423.34167     581.6086     503.8429
   1423.32642     581.8669     502.9469   1423.32642     581.8669     502.9469
   1423.31116     581.0614     503.2883   1423.31116     581.0614     503.2883
   1423.29590     579.9871     501.6225   1423.29590     579.9871     501.6225
   1423.28064     580.6733     501.2961   1423.28064     580.6733     501.2961
   1423.26538     580.1575     500.8669   1423.26538     580.1575     500.8669
   1423.25012     579.9080     499.9520   1423.25012     579.9080     499.9520
   1423.23486     579.5098     498.5490   1423.23486     579.5098     498.5490
   1423.21960     578.5682     498.0462   1423.21960     578.5682     498.0462
   1423.20435     578.4995     497.7282   1423.20435     578.4995     497.7282
   1423.18909     578.2097     496.2895   1423.18909     578.2097     496.2895
   1423.17383     577.3157     495.0652   1423.17383     577.3157     495.0652
   1423.15857     577.9379     494.5706   1423.15857     577.9379     494.5706
   1423.14331     578.7262     494.1179   1423.14331     578.7262     494.1179
   1423.12805     576.7509     492.7097   1423.12805     576.7509     492.7097
   1423.11279     577.6039     492.3368   1423.11279     577.6039     492.3368
   1423.09753     576.6454     490.7460   1423.09753     576.6454     490.7460
   1423.08228     576.2016     489.2749   1423.08228     576.2016     489.2749
   1423.06702     575.8715     489.3302   1423.06702     575.8715     489.3302
   1423.05176     575.4853     488.1918   1423.05176     575.4853     488.1918
   1423.03650     575.2673     486.8903   1423.03650     575.2673     486.8903
   1423.02124     574.3681     486.3603   1423.02124     574.3681     486.3603
   1423.00598     573.8049     485.4906   1423.00598     573.8049     485.4906
   1422.99072     573.4373     484.0331   1422.99072     573.4373     484.0331
   1422.97546     573.9497     482.6231   1422.97546     573.9497     482.6231
   1422.96021     573.7509     482.5736   1422.96021     573.7509     482.5736
   1422.94495     572.8611     482.5190   1422.94495     572.8611     482.5190
   1422.92969     572.6236     480.6174   1422.92969     572.6236     480.6174
   1422.91443     572.9878     480.2575   1422.91443     572.9878     480.2575
   1422.89917     572.7706     479.2913   1422.89917     572.7706     479.2913
   1422.88391     572.5683     478.8790   1422.88391     572.5683     478.8790
   1422.86865     571.9744     477.8531   1422.86865     571.9744     477.8531
   1422.85339     572.5328     476.7249   1422.85339     572.5328     476.7249
   1422.83813     571.1567     475.6864   1422.83813     571.1567     475.6864
   1422.82288     571.3947     474.7977   1422.82288     571.3947     474.7977
   1422.80762     570.7671     473.8175   1422.80762     570.7671     473.8175
   1422.79236     571.4266     473.5848   1422.79236     571.4266     473.5848
   1422.77710     570.9138     471.6193   1422.77710     570.9138     471.6193
   1422.76184     571.0646     471.3586   1422.76184     571.0646     471.3586
   1422.74658     570.2004     470.4033   1422.74658     570.2004     470.4033
   1422.73132     570.6819     468.5867   1422.73132     570.6819     468.5867
   1422.71606     570.0369     468.4322   1422.71606     570.0369     468.4322
   1422.70081     569.7589     467.6722   1422.70081     569.7589     467.6722
   1422.68555     570.0825     466.0980   1422.68555     570.0825     466.0980
   1422.67029     569.7054     465.4477   1422.67029     569.7054     465.4477
   1422.65503     569.3852     464.5624   1422.65503     569.3852     464.5624
   1422.63977     569.2547     463.5657   1422.63977     569.2547     463.5657
   1422.62451     568.3382     461.9200   1422.62451     568.3382     461.9200
   1422.60925     568.2741     461.4819   1422.60925     568.2741     461.4819
   1422.59399     568.1206     459.9683   1422.59399     568.1206     459.9683
   1422.57874     568.6121     459.4823   1422.57874     568.6121     459.4823
   1422.56348     567.8870     458.6168   1422.56348     567.8870     458.6168
   1422.54822     567.6591     458.1127   1422.54822     567.6591     458.1127
   1422.53296     568.4362     456.5686   1422.53296     568.4362     456.5686
   1422.51770     567.5536     455.5722   1422.51770     567.5536     455.5722
   1422.50244     567.2159     454.0041   1422.50244     567.2159     454.0041
   1422.48718     567.3911     453.5196   1422.48718     567.3911     453.5196
   1422.47192     566.5899     452.9746   1422.47192     566.5899     452.9746
   1422.45667     567.5587     451.8455   1422.45667     567.5587     451.8455
   1422.44141     567.0537     450.5317   1422.44141     567.0537     450.5317
   1422.42615     567.3604     450.1538   1422.42615     567.3604     450.1538
   1422.41089     566.5135     449.4785   1422.41089     566.5135     449.4785
   1422.39563     567.2292     448.1655   1422.39563     567.2292     448.1655
   1422.38037     566.0407     447.3165   1422.38037     566.0407     447.3165
   1422.36511     565.9075     445.9035   1422.36511     565.9075     445.9035
   1422.34985     566.0200     445.3304   1422.34985     566.0200     445.3304
   1422.33459     565.7397     443.1561   1422.33459     565.7397     443.1561
   1422.31934     565.9171     442.6185   1422.31934     565.9171     442.6185
   1422.30408     566.0354     442.4344   1422.30408     566.0354     442.4344
   1422.28882     566.0617     441.4755   1422.28882     566.0617     441.4755
   1422.27356     565.5680     439.5063   1422.27356     565.5680     439.5063
   1422.25830     565.9007     439.5462   1422.25830     565.9007     439.5462
   1422.24304     565.9047     439.7683   1422.24304     565.9047     439.7683
   1422.22778     565.6610     437.2839   1422.22778     565.6610     437.2839
   1422.21252     565.6797     435.7044   1422.21252     565.6797     435.7044
   1422.19727     564.4883     435.0001   1422.19727     564.4883     435.0001
   1422.18201     565.7038     435.1090   1422.18201     565.7038     435.1090
   1422.16675     565.2090     432.9064   1422.16675     565.2090     432.9064
   1422.15149     565.2104     431.4376   1422.15149     565.2104     431.4376
   1422.13623     564.3126     431.5022   1422.13623     564.3126     431.5022
   1422.12097     565.2859     430.4321   1422.12097     565.2859     430.4321
   1422.10571     564.8304     428.8068   1422.10571     564.8304     428.8068
   1422.09045     564.6833     428.1082   1422.09045     564.6833     428.1082
   1422.07520     564.2867     426.5012   1422.07520     564.2867     426.5012
   1422.05994     563.8099     426.1047   1422.05994     563.8099     426.1047
   1422.04468     565.0963     426.0255   1422.04468     565.0963     426.0255
   1422.02942     563.0939     424.1503   1422.02942     563.0939     424.1503
   1422.01416     564.0966     424.1232   1422.01416     564.0966     424.1232
   1421.99890     570.2698     423.4780   1421.99890     570.2698     423.4780
   1421.98364     563.7868     421.9551   1421.98364     563.7868     421.9551
   1421.96838     563.2451     420.0307   1421.96838     563.2451     420.0307
   1421.95312     563.8145     419.2094   1421.95312     563.8145     419.2094
   1421.93787     564.1532     418.1870   1421.93787     564.1532     418.1870
   1421.92261     563.4618     417.7385   1421.92261     563.4618     417.7385
   1421.90735     563.2620     416.9274   1421.90735     563.2620     416.9274
   1421.89209     564.2703     415.6003   1421.89209     564.2703     415.6003
   1421.87683     564.0195     414.4138   1421.87683     564.0195     414.4138
   1421.86157     563.6667     414.4720   1421.86157     563.6667     414.4720
   1421.84631     563.7534     412.5420   1421.84631     563.7534     412.5420
   1421.83105     563.4157     412.3013   1421.83105     563.4157     412.3013
   1421.81580     562.9996     411.1958   1421.81580     562.9996     411.1958
   1421.80054     563.5993     409.9610   1421.80054     563.5993     409.9610
   1421.78528     563.5013     409.2747   1421.78528     563.5013     409.2747
   1421.77002     563.2024     407.7363   1421.77002     563.2024     407.7363
   1421.75476     562.6331     406.5909   1421.75476     562.6331     406.5909
   1421.73950     563.5153     405.8759   1421.73950     563.5153     405.8759
   1421.72424     563.5746     405.1980   1421.72424     563.5746     405.1980
   1421.70898     563.2887     403.7440   1421.70898     563.2887     403.7440
   1421.69373     563.1404     402.7411   1421.69373     563.1404     402.7411
   1421.67847     562.9976     402.2450   1421.67847     562.9976     402.2450
   1421.66321     562.5759     401.3138   1421.66321     562.5759     401.3138
   1421.64795     561.8558     400.3914   1421.64795     561.8558     400.3914
   1421.63269     562.9526     399.6017   1421.63269     562.9526     399.6017
   1421.61743     561.4727     398.8113   1421.61743     561.4727     398.8113
   1421.60217     561.5652     397.5225   1421.60217     561.5652     397.5225
   1421.58691     562.2725     396.8514   1421.58691     562.2725     396.8514
   1421.57166     562.2298     395.6299   1421.57166     562.2298     395.6299
   1421.55640     561.5303     394.5647   1421.55640     561.5303     394.5647
   1421.54114     561.6147     394.3173   1421.54114     561.6147     394.3173
   1421.52588     561.1177     393.3910   1421.52588     561.1177     393.3910
   1421.51062     561.1126     393.0999   1421.51062     561.1126     393.0999
   1421.49536     561.5686     391.7975   1421.49536     561.5686     391.7975
   1421.48010     561.7550     390.2760   1421.48010     561.7550     390.2760
   1421.46484     561.7910     388.7427   1421.46484     561.7910     388.7427
   1421.44958     561.6918     389.3637   1421.44958     561.6918     389.3637
   1421.43433     561.9148     387.6378   1421.43433     561.9148     387.6378
   1421.41907     562.3785     386.9142   1421.41907     562.3785     386.9142
   1421.40381     561.5185     386.0039   1421.40381     561.5185     386.0039
   1421.38855     561.5488     385.0322   1421.38855     561.5488     385.0322
   1421.37329     560.7748     384.1849   1421.37329     560.7748     384.1849
   1421.35803     561.5611     383.5337   1421.35803     561.5611     383.5337
   1421.34277     561.8381     383.2498   1421.34277     561.8381     383.2498
   1421.32751     560.4643     381.5061   1421.32751     560.4643     381.5061
   1421.31226     561.2339     381.0398   1421.31226     561.2339     381.0398
   1421.29700     559.9394     379.9669   1421.29700     559.9394     379.9669
   1421.28174     560.9446     378.9068   1421.28174     560.9446     378.9068
   1421.26648     560.0800     378.3300   1421.26648     560.0800     378.3300
   1421.25122     560.4921     376.9865   1421.25122     560.4921     376.9865
   1421.23596     559.4609     376.5484   1421.23596     559.4609     376.5484
   1421.22070     560.1212     375.5648   1421.22070     560.1212     375.5648
   1421.20544     560.5696     374.1710   1421.20544     560.5696     374.1710
   1421.19019     560.6194     373.8863   1421.19019     560.6194     373.8863
   1421.17493     560.5208     373.7734   1421.17493     560.5208     373.7734
   1421.15967     560.5143     371.9164   1421.15967     560.5143     371.9164
   1421.14441     559.8024     371.9289   1421.14441     559.8024     371.9289
   1421.12915     559.4315     370.2439   1421.12915     559.4315     370.2439
   1421.11389     560.5222     369.1453   1421.11389     560.5222     369.1453
   1421.09863     559.9897     369.4848   1421.09863     559.9897     369.4848
   1421.08337     559.5684     368.1983   1421.08337     559.5684     368.1983
   1421.06812     560.6837     367.6167   1421.06812     560.6837     367.6167
   1421.05286     560.3749     367.3796   1421.05286     560.3749     367.3796
   1421.03760     560.1856     366.0335   1421.03760     560.1856     366.0335
   1421.02234     560.9443     365.6650   1421.02234     560.9443     365.6650
   1421.00708     561.5320     364.5327   1421.00708     561.5320     364.5327
   1420.99182     561.5435     364.6837   1420.99182     561.5435     364.6837
   1420.97656     561.6246     364.1225   1420.97656     561.6246     364.1225
   1420.96130     560.9763     363.2799   1420.96130     560.9763     363.2799
   1420.94604     562.4641     362.2018   1420.94604     562.4641     362.2018
   1420.93079     562.6164     362.0938   1420.93079     562.6164     362.0938
   1420.91553     561.6644     361.4675   1420.91553     561.6644     361.4675
   1420.90027     562.1176     361.1385   1420.90027     562.1176     361.1385
   1420.88501     561.6097     359.3310   1420.88501     561.6097     359.3310
   1420.86975     561.5554     359.6070   1420.86975     561.5554     359.6070
   1420.85449     561.6365     358.8181   1420.85449     561.6365     358.8181
   1420.83923     561.3290     357.7375   1420.83923     561.3290     357.7375
   1420.82397     561.3360     357.5782   1420.82397     561.3360     357.5782
   1420.80872     561.5891     356.4128   1420.80872     561.5891     356.4128
   1420.79346     562.6186     355.6504   1420.79346     562.6186     355.6504
   1420.77820     562.4719     355.1040   1420.77820     562.4719     355.1040
   1420.76294     562.9651     355.1158   1420.76294     562.9651     355.1158
   1420.74768     563.6527     354.6948   1420.74768     563.6527     354.6948
   1420.73242     563.7277     355.0829   1420.73242     563.7277     355.0829
   1420.71716     565.8292     354.7311   1420.71716     565.8292     354.7311
   1420.70190     568.0737     355.2858   1420.70190     568.0737     355.2858
   1420.68665     570.9072     357.3780   1420.68665     570.9072     357.3780
   1420.67139     577.1613     360.5628   1420.67139     577.1613     360.5628
   1420.65613     585.4729     365.1696   1420.65613     585.4729     365.1696
   1420.64087     599.4622     371.5196   1420.64087     599.4622     371.5196
   1420.62561     613.1890     380.1551   1420.62561     613.1890     380.1551
   1420.61035     627.2767     388.9902   1420.61035     627.2767     388.9902
   1420.59509     646.9468     399.7771   1420.59509     646.9468     399.7771
   1420.57983     664.3850     410.3369   1420.57983     664.3850     410.3369
   1420.56458     680.7350     420.2180   1420.56458     680.7350     420.2180
   1420.54932     731.7581     449.1312   1420.54932     731.7581     449.1312
   1420.53406     877.8497     535.9228   1420.53406     877.8497     535.9228
   1420.51880    1081.0258     658.7861   1420.51880    1081.0258     658.7861
   1420.50354    1295.3099     787.5190   1420.50354    1295.3099     787.5190
   1420.48828    1360.0614     825.9324   1420.48828    1360.0614     825.9324
   1420.47302    1405.4917     854.3784   1420.47302    1405.4917     854.3784
   1420.45776    1362.2542     825.1987   1420.45776    1362.2542     825.1987
   1420.44250    1329.3373     806.6634   1420.44250    1329.3373     806.6634
   1420.42725    1325.0315     801.5232   1420.42725    1325.0315     801.5232
   1420.41199    1262.9067     763.1685   1420.41199    1262.9067     763.1685
   1420.39673    1315.8232     793.3484   1420.39673    1315.8232     793.3484
   1420.38147    1448.2142     868.0063   1420.38147    1448.2142     868.0063
   1420.36621    1444.9226     865.3674   1420.36621    1444.9226     865.3674
   1420.35095    1370.1920     818.6497   1420.35095    1370.1920     818.6497
   1420.33569    1251.4182     747.2458   1420.33569    1251.4182     747.2458
   1420.32043    1129.5978     674.7975   1420.32043    1129.5978     674.7975
   1420.30518    1032.1223     613.3101   1420.30518    1032.1223     613.3101
   1420.28992     806.5353     479.8409   1420.28992     806.5353     479.8409
   1420.27466     674.7718     401.3777   1420.27466     674.7718     401.3777
   1420.25940     614.5808     365.7404   1420.25940     614.5808     365.7404
   1420.24414     590.3758     350.5893   1420.24414     590.3758     350.5893
   1420.22888     577.8295     343.2065   1420.22888     577.8295     343.2065
   1420.21362     571.4573     338.9713   1420.21362     571.4573     338.9713
   1420.19836     566.9726     335.4398   1420.19836     566.9726     335.4398
   1420.18311     564.7142     333.3985   1420.18311     564.7142     333.3985
   1420.16785     563.1480     332.0934   1420.16785     563.1480     332.0934
   1420.15259     560.1044     330.9166   1420.15259     560.1044     330.9166
   1420.13733     559.9361     329.7677   1420.13733     559.9361     329.7677
   1420.12207     558.8885     328.6356   1420.12207     558.8885     328.6356
   1420.10681     556.2780     327.2338   1420.10681     556.2780     327.2338
   1420.09155     555.8755     326.5637   1420.09155     555.8755     326.5637
   1420.07629     556.4850     325.5333   1420.07629     556.4850     325.5333
   1420.06104     555.4998     325.1531   1420.06104     555.4998     325.1531
   1420.04578     555.0963     324.6746   1420.04578     555.0963     324.6746
   1420.03052     554.6644     324.0466   1420.03052     554.6644     324.0466
   1420.01526     556.0362     324.5578   1420.01526     556.0362     324.5578
   1420.00000     556.5997     324.0592   1420.00000     556.5997     324.0592
   1419.98474     557.1634     323.5602   1419.98474     557.1634     323.5602
   1419.96948     555.7560     322.5103   1419.96948     555.7560     322.5103
   1419.95422     554.1897     321.2182   1419.95422     554.1897     321.2182
   1419.93896     553.9501     321.0818   1419.93896     553.9501     321.0818
   1419.92371     554.0317     320.9214   1419.92371     554.0317     320.9214
   1419.90845     554.7783     320.0262   1419.90845     554.7783     320.0262
   1419.89319     554.2989     319.8729   1419.89319     554.2989     319.8729
   1419.87793     554.2222     319.6577   1419.87793     554.2222     319.6577
   1419.86267     554.1494     318.6053   1419.86267     554.1494     318.6053
   1419.84741     554.2275     318.6308   1419.84741     554.2275     318.6308
   1419.83215     554.1840     317.9959   1419.83215     554.1840     317.9959
   1419.81689     554.3828     317.6052   1419.81689     554.3828     317.6052
   1419.80164     553.8696     317.6805   1419.80164     553.8696     317.6805
   1419.78638     554.7394     317.3680   1419.78638     554.7394     317.3680
   1419.77112     554.5215     317.0230   1419.77112     554.5215     317.0230
   1419.75586     553.4619     316.8555   1419.75586     553.4619     316.8555
   1419.74060     553.5144     316.0146   1419.74060     553.5144     316.0146
   1419.72534     555.2603     316.0210   1419.72534     555.2603     316.0210
   1419.71008     554.0792     315.6823   1419.71008     554.0792     315.6823
   1419.69482     554.4539     315.6197   1419.69482     554.4539     315.6197
   1419.67957     554.7444     315.5876   1419.67957     554.7444     315.5876
   1419.66431     555.5466     314.6721   1419.66431     555.5466     314.6721
   1419.64905     555.3101     314.8255   1419.64905     555.3101     314.8255
   1419.63379     555.2071     314.6635   1419.63379     555.2071     314.6635
   1419.61853     555.3707     314.6432   1419.61853     555.3707     314.6432
   1419.60327     555.1423     313.7083   1419.60327     555.1423     313.7083
   1419.58801     555.6603     313.6075   1419.58801     555.6603     313.6075
   1419.57275     555.9087     313.7167   1419.57275     555.9087     313.7167
   1419.55750     556.5186     313.4665   1419.55750     556.5186     313.4665
   1419.54224     556.1056     313.5010   1419.54224     556.1056     313.5010
   1419.52698     556.8608     312.9961   1419.52698     556.8608     312.9961
   1419.51172     556.2468     313.1364   1419.51172     556.2468     313.1364
   1419.49646     556.9879     313.0834   1419.49646     556.9879     313.0834
   1419.48120     555.7038     312.4828   1419.48120     555.7038     312.4828
   1419.46594     557.3333     312.5578   1419.46594     557.3333     312.5578
   1419.45068     557.3965     311.9288   1419.45068     557.3965     311.9288
   1419.43542     557.3693     312.2453   1419.43542     557.3693     312.2453
   1419.42017     557.1487     311.9903   1419.42017     557.1487     311.9903
   1419.40491     557.7195     311.5871   1419.40491     557.7195     311.5871
   1419.38965     557.6284     312.2994   1419.38965     557.6284     312.2994
   1419.37439     558.5042     312.0754   1419.37439     558.5042     312.0754
   1419.35913     558.0275     311.6731   1419.35913     558.0275     311.6731
   1419.34387     558.7747     311.5118   1419.34387     558.7747     311.5118
   1419.32861     558.7610     311.6750   1419.32861     558.7610     311.6750
   1419.31335     559.0670     311.3512   1419.31335     559.0670     311.3512
   1419.29810     559.7086     311.4550   1419.29810     559.7086     311.4550
   1419.28284     559.6008     310.8942   1419.28284     559.6008     310.8942
   1419.26758     559.7089     311.9476   1419.26758     559.7089     311.9476
   1419.25232     560.3408     311.5098   1419.25232     560.3408     311.5098
   1419.23706     559.4241     311.5152   1419.23706     559.4241     311.5152
   1419.22180     560.2079     311.4670   1419.22180     560.2079     311.4670
   1419.20654     560.5203     311.3113   1419.20654     560.5203     311.3113
   1419.19128     560.8071     311.6623   1419.19128     560.8071     311.6623
   1419.17603     560.6691     311.3034   1419.17603     560.6691     311.3034
   1419.16077     561.6023     311.4119   1419.16077     561.6023     311.4119
   1419.14551     561.0732     311.4176   1419.14551     561.0732     311.4176
   1419.13025     561.3961     311.3987   1419.13025     561.3961     311.3987
   1419.11499     563.0594     311.4771   1419.11499     563.0594     311.4771
   1419.09973     562.5259     311.0761   1419.09973     562.5259     311.0761
   1419.08447     563.5494     311.4700   1419.08447     563.5494     311.4700
   1419.06921     563.2495     312.0598   1419.06921     563.2495     312.0598
   1419.05396     562.9117     312.1473   1419.05396     562.9117     312.1473
   1419.03870     564.6309     311.8932   1419.03870     564.6309     311.8932
   1419.02344     564.5104     312.3419   1419.02344     564.5104     312.3419
   1419.00818     563.7369     312.3147   1419.00818     563.7369     312.3147
   1418.99292     565.5195     311.8933   1418.99292     565.5195     311.8933
   1418.97766     565.1474     312.3477   1418.97766     565.1474     312.3477
   1418.96240     565.2955     312.3912   1418.96240     565.2955     312.3912
   1418.94714     565.4710     312.6612   1418.94714     565.4710     312.6612
   1418.93188     565.6027     312.7968   1418.93188     565.6027     312.7968
   1418.91663     566.7400     312.8427   1418.91663     566.7400     312.8427
   1418.90137     566.2921     313.3692   1418.90137     566.2921     313.3692
   1418.88611     566.9644     312.8504   1418.88611     566.9644     312.8504
   1418.87085     566.5757     313.3858   1418.87085     566.5757     313.3858
   1418.85559     568.2015     313.5879   1418.85559     568.2015     313.5879
   1418.84033     568.4191     313.9133   1418.84033     568.4191     313.9133
   1418.82507     567.6298     314.1536   1418.82507     567.6298     314.1536
   1418.80981     568.4952     314.6362   1418.80981     568.4952     314.6362
   1418.79456     567.7562     314.3965   1418.79456     567.7562     314.3965
   1418.77930     569.5995     314.7012   1418.77930     569.5995     314.7012
   1418.76404     570.7327     315.3606   1418.76404     570.7327     315.3606
   1418.74878     570.5931     315.5329   1418.74878     570.5931     315.5329
   1418.73352     570.8423     315.6648   1418.73352     570.8423     315.6648
   1418.71826     571.2852     315.9435   1418.71826     571.2852     315.9435
   1418.70300     570.5556     316.0084   1418.70300     570.5556     316.0084
   1418.68774     572.0353     316.1551   1418.68774     572.0353     316.1551
   1418.67249     572.4009     316.3119   1418.67249     572.4009     316.3119
   1418.65723     572.8978     317.1137   1418.65723     572.8978     317.1137
   1418.64197     572.7550     317.3438   1418.64197     572.7550     317.3438
   1418.62671     572.9399     318.0769   1418.62671     572.9399     318.0769
   1418.61145     573.8757     318.5220   1418.61145     573.8757     318.5220
   1418.59619     574.4656     318.8961   1418.59619     574.4656     318.8961
   1418.58093     574.8812     318.8244   1418.58093     574.8812     318.8244
   1418.56567     575.2281     319.4116   1418.56567     575.2281     319.4116
   1418.55042     576.0915     319.9599   1418.55042     576.0915     319.9599
   1418.53516     575.8477     319.6335   1418.53516     575.8477     319.6335
   1418.51990     577.8597     320.7207   1418.51990     577.8597     320.7207
   1418.50464     576.7181     320.9840   1418.50464     576.7181     320.9840
   1418.48938     577.1306     321.0254   1418.48938     577.1306     321.0254
   1418.47412     577.8305     321.5589   1418.47412     577.8305     321.5589
   1418.45886     578.8567     322.0653   1418.45886     578.8567     322.0653
   1418.44360     580.1766     322.5057   1418.44360     580.1766     322.5057
   1418.42834     579.8561     323.3473   1418.42834     579.8561     323.3473
   1418.41309     579.5861     323.3034   1418.41309     579.5861     323.3034
   1418.39783     580.5958     324.3084   1418.39783     580.5958     324.3084
   1418.38257     581.4008     324.6046   1418.38257     581.4008     324.6046
   1418.36731     581.7026     324.9795   1418.36731     581.7026     324.9795
   1418.35205     581.8495     325.1626   1418.35205     581.8495     325.1626
   1418.33679     582.8934     325.9947   1418.33679     582.8934     325.9947
   1418.32153     582.1944     327.0541   1418.32153     582.1944     327.0541
   1418.30627     583.1382     326.8948   1418.30627     583.1382     326.8948
   1418.29102     583.7599     327.0868   1418.29102     583.7599     327.0868
   1418.27576     584.3477     328.1198   1418.27576     584.3477     328.1198
   1418.26050     585.1028     329.0016   1418.26050     585.1028     329.0016
   1418.24524     584.1172     328.7267   1418.24524     584.1172     328.7267
   1418.22998     585.5770     329.9017   1418.22998     585.5770     329.9017
   1418.21472     587.4382     330.4488   1418.21472     587.4382     330.4488
   1418.19946     586.5390     331.0498   1418.19946     586.5390     331.0498
   1418.18420     588.2153     331.1335   1418.18420     588.2153     331.1335
   1418.16895     588.0189     332.2793   1418.16895     588.0189     332.2793
   1418.15369     588.8071     332.6110   1418.15369     588.8071     332.6110
   1418.13843     588.8285     333.4832   1418.13843     588.8285     333.4832
   1418.12317     589.4816     333.7540   1418.12317     589.4816     333.7540
   1418.10791     589.8813     334.9034   1418.10791     589.8813     334.9034
   1418.09265     591.2341     335.0329   1418.09265     591.2341     335.0329
   1418.07739     591.0507     335.9879   1418.07739     591.0507     335.9879
   1418.06213     591.9828     336.1812   1418.06213     591.9828     336.1812
   1418.04688     592.4280     337.6663   1418.04688     592.4280     337.6663
   1418.03162     593.3162     338.1641   1418.03162     593.3162     338.1641
   1418.01636     593.2548     338.7022   1418.01636     593.2548     338.7022
   1418.00110     593.6164     339.4694   1418.00110     593.6164     339.4694
   1417.98584     594.2201     340.2042   1417.98584     594.2201     340.2042
   1417.97058     594.5405     340.4887   1417.97058     594.5405     340.4887
   1417.95532     595.7103     341.2058   1417.95532     595.7103     341.2058
   1417.94006     596.4495     342.1250   1417.94006     596.4495     342.1250
   1417.92480     596.9570     343.0095   1417.92480     596.9570     343.0095
   1417.90955     597.5422     343.5766   1417.90955     597.5422     343.5766
   1417.89429     598.9695     344.3189   1417.89429     598.9695     344.3189
   1417.87903     598.7887     345.0518   1417.87903     598.7887     345.0518
   1417.86377     600.0857     346.1469   1417.86377     600.0857     346.1469
   1417.84851     600.2898     346.8632   1417.84851     600.2898     346.8632
   1417.83325     601.3628     347.5461   1417.83325     601.3628     347.5461
   1417.81799     600.1595     348.7082   1417.81799     600.1595     348.7082
   1417.80273     602.6194     349.5604   1417.80273     602.6194     349.5604
   1417.78748     601.8856     349.7016   1417.78748     601.8856     349.7016
   1417.77222     603.4214     351.0320   1417.77222     603.4214     351.0320
   1417.75696     604.0577     352.2559   1417.75696     604.0577     352.2559
   1417.74170     605.8353     352.8830   1417.74170     605.8353     352.8830
   1417.72644     605.1934     353.4460   1417.72644     605.1934     353.4460
   1417.71118     604.9532     354.2740   1417.71118     604.9532     354.2740
   1417.69592     606.8057     355.1104   1417.69592     606.8057     355.1104
   1417.68066     607.7098     355.9085   1417.68066     607.7098     355.9085
   1417.66541     608.1749     356.8804   1417.66541     608.1749     356.8804
   1417.65015     608.2717     358.0677   1417.65015     608.2717     358.0677
   1417.63489     608.5413     358.6652   1417.63489     608.5413     358.6652
   1417.61963     610.2764     360.1709   1417.61963     610.2764     360.1709
   1417.60437     610.6157     361.0594   1417.60437     610.6157     361.0594
   1417.58911     610.1817     361.7904   1417.58911     610.1817     361.7904
   1417.57385     611.4364     362.8920   1417.57385     611.4364     362.8920
   1417.55859     612.3796     363.7955   1417.55859     612.3796     363.7955
   1417.54333     612.3993     364.5523   1417.54333     612.3993     364.5523
   1417.52808     613.2858     365.7386   1417.52808     613.2858     365.7386
   1417.51282     614.1640     366.4010   1417.51282     614.1640     366.4010
   1417.49756     614.7407     367.0590   1417.49756     614.7407     367.0590
   1417.48230     616.1793     368.5394   1417.48230     616.1793     368.5394
   1417.46704     615.6387     369.0949   1417.46704     615.6387     369.0949
   1417.45178     616.3252     371.0699   1417.45178     616.3252     371.0699
   1417.43652     616.9907     371.3260   1417.43652     616.9907     371.3260
   1417.42126     618.0536     371.9044   1417.42126     618.0536     371.9044
   1417.40601     619.1697     373.5527   1417.40601     619.1697     373.5527
   1417.39075     618.9359     374.2853   1417.39075     618.9359     374.2853
   1417.37549     619.9507     375.1248   1417.37549     619.9507     375.1248
   1417.36023     621.0349     376.9423   1417.36023     621.0349     376.9423
   1417.34497     620.3160     377.1296   1417.34497     620.3160     377.1296
   1417.32971     621.7394     378.2918   1417.32971     621.7394     378.2918
   1417.31445     623.5740     379.6098   1417.31445     623.5740     379.6098
   1417.29919     622.3233     380.8609   1417.29919     622.3233     380.8609
   1417.28394     623.9174     381.7361   1417.28394     623.9174     381.7361
   1417.26868     623.8611     382.3711   1417.26868     623.8611     382.3711
   1417.25342     624.9377     384.5146   1417.25342     624.9377     384.5146
   1417.23816     625.1737     384.5434   1417.23816     625.1737     384.5434
   1417.22290     626.1965     386.2253   1417.22290     626.1965     386.2253
   1417.20764     626.8294     386.7040   1417.20764     626.8294     386.7040
   1417.19238     627.4849     387.9180   1417.19238     627.4849     387.9180
   1417.17712     628.8978     389.0488   1417.17712     628.8978     389.0488
   1417.16187     628.6837     390.9229   1417.16187     628.6837     390.9229
   1417.14661     628.9401     391.1684   1417.14661     628.9401     391.1684
   1417.13135     629.5950     392.5996   1417.13135     629.5950     392.5996
   1417.11609     631.2446     393.5995   1417.11609     631.2446     393.5995
   1417.10083     631.6906     394.2004   1417.10083     631.6906     394.2004
   1417.08557     631.8817     394.9335   1417.08557     631.8817     394.9335
   1417.07031     633.2902     396.7172   1417.07031     633.2902     396.7172
   1417.05505     633.1984     397.6436   1417.05505     633.1984     397.6436
   1417.03979     634.4871     398.8450   1417.03979     634.4871     398.8450
   1417.02454     634.2421     399.5370   1417.02454     634.2421     399.5370
   1417.00928     635.4429     400.4635   1417.00928     635.4429     400.4635
   1416.99402     635.6516     401.7612   1416.99402     635.6516     401.7612
   1416.97876     636.5522     402.7202   1416.97876     636.5522     402.7202
   1416.96350     636.6783     404.6025   1416.96350     636.6783     404.6025
   1416.94824     637.2225     404.7895   1416.94824     637.2225     404.7895
   1416.93298     638.6834     406.0269   1416.93298     638.6834     406.0269
   1416.91772     637.7841     407.0555   1416.91772     637.7841     407.0555
   1416.90247     638.6141     408.0229   1416.90247     638.6141     408.0229
   1416.88721     639.3011     408.5761   1416.88721     639.3011     408.5761
   1416.87195     640.6429     409.9893   1416.87195     640.6429     409.9893
   1416.85669     640.0215     410.5173   1416.85669     640.0215     410.5173
   1416.84143     639.7706     411.1488   1416.84143     639.7706     411.1488
   1416.82617     642.0099     412.2855   1416.82617     642.0099     412.2855
   1416.81091     642.5650     413.3388   1416.81091     642.5650     413.3388
   1416.79565     642.2598     414.7581   1416.79565     642.2598     414.7581
   1416.78040     642.8802     415.5836   1416.78040     642.8802     415.5836
   1416.76514     643.3807     416.9378   1416.76514     643.3807     416.9378
   1416.74988     644.2858     417.6890   1416.74988     644.2858     417.6890
   1416.73462     644.5472     418.1413   1416.73462     644.5472     418.1413
   1416.71936     645.4683     418.9871   1416.71936     645.4683     418.9871
   1416.70410     644.7162     419.4603   1416.70410     644.7162     419.4603
   1416.68884     645.1900     420.7127   1416.68884     645.1900     420.7127
   1416.67358     645.7545     422.1503   1416.67358     645.7545     422.1503
   1416.65833     645.6852     422.6282   1416.65833     645.6852     422.6282
   1416.64307     647.4688     423.1648   1416.64307     647.4688     423.1648
   1416.62781     648.0182     424.0051   1416.62781     648.0182     424.0051
   1416.61255     647.2592     424.5923   1416.61255     647.2592     424.5923
   1416.59729     647.1948     425.9550   1416.59729     647.1948     425.9550
   1416.58203     649.0978     426.4377   1416.58203     649.0978     426.4377
   1416.56677     648.5310     427.5723   1416.56677     648.5310     427.5723
   1416.55151     649.1971     428.2431   1416.55151     649.1971     428.2431
   1416.53625     649.3369     428.0701   1416.53625     649.3369     428.0701
   1416.52100     649.0092     429.3019   1416.52100     649.0092     429.3019
   1416.50574     650.2766     429.6098   1416.50574     650.2766     429.6098
   1416.49048     650.0464     430.7023   1416.49048     650.0464     430.7023
   1416.47522     650.4971     430.7275   1416.47522     650.4971     430.7275
   1416.45996     650.7634     431.5449   1416.45996     650.7634     431.5449
   1416.44470     651.0818     432.2405   1416.44470     651.0818     432.2405
   1416.42944     651.1031     432.6470   1416.42944     651.1031     432.6470
   1416.41418     651.4075     433.0745   1416.41418     651.4075     433.0745
   1416.39893     650.4316     433.7358   1416.39893     650.4316     433.7358
   1416.38367     650.8140     434.2224   1416.38367     650.8140     434.2224
   1416.36841     651.1517     434.5585   1416.36841     651.1517     434.5585
   1416.35315     651.2729     435.2838   1416.35315     651.2729     435.2838
   1416.33789     651.4824     435.7298   1416.33789     651.4824     435.7298
   1416.32263     652.1536     436.5480   1416.32263     652.1536     436.5480
   1416.30737     651.2779     436.5751   1416.30737     651.2779     436.5751
   1416.29211     651.3213     436.9398   1416.29211     651.3213     436.9398
   1416.27686     650.3951     436.9711   1416.27686     650.3951     436.9711
   1416.26160     651.2984     438.3616   1416.26160     651.2984     438.3616
   1416.24634     652.5355     437.8640   1416.24634     652.5355     437.8640
   1416.23108     652.1822     438.7578   1416.23108     652.1822     438.7578
   1416.21582     652.5444     439.3210   1416.21582     652.5444     439.3210
   1416.20056     652.2226     438.7414   1416.20056     652.2226     438.7414
   1416.18530     651.9283     439.7688   1416.18530     651.9283     439.7688
   1416.17004     651.8932     440.3332   1416.17004     651.8932     440.3332
   1416.15479     651.4237     440.0142   1416.15479     651.4237     440.0142
   1416.13953     651.8726     440.3408   1416.13953     651.8726     440.3408
   1416.12427     652.1602     441.2147   1416.12427     652.1602     441.2147
   1416.10901     651.3003     440.6480   1416.10901     651.3003     440.6480
   1416.09375     650.6512     442.2063   1416.09375     650.6512     442.2063
   1416.07849     651.2375     441.6255   1416.07849     651.2375     441.6255
   1416.06323     650.1205     441.9281   1416.06323     650.1205     441.9281
   1416.04797     650.0948     442.2401   1416.04797     650.0948     442.2401
   1416.03271     650.2538     442.7834   1416.03271     650.2538     442.7834
   1416.01746     649.9033     442.2590   1416.01746     649.9033     442.2590
   1416.00220     650.2010     442.2799   1416.00220     650.2010     442.2799
   1415.98694     649.4179     443.1242   1415.98694     649.4179     443.1242
   1415.97168     648.8248     443.1524   1415.97168     648.8248     443.1524
   1415.95642     648.8474     442.7424   1415.95642     648.8474     442.7424
   1415.94116     649.7437     443.1676   1415.94116     649.7437     443.1676
   1415.92590     648.4050     443.4396   1415.92590     648.4050     443.4396
   1415.91064     648.6284     442.9462   1415.91064     648.6284     442.9462
   1415.89539     648.9634     443.4271   1415.89539     648.9634     443.4271
   1415.88013     647.9091     443.6735   1415.88013     647.9091     443.6735
   1415.86487     647.7574     443.9036   1415.86487     647.7574     443.9036
   1415.84961     647.3693     444.2102   1415.84961     647.3693     444.2102
   1415.83435     646.6769     443.7672   1415.83435     646.6769     443.7672
   1415.81909     646.3133     443.9282   1415.81909     646.3133     443.9282
   1415.80383     644.7073     443.8566   1415.80383     644.7073     443.8566
   1415.78857     645.3297     443.7719   1415.78857     645.3297     443.7719
   1415.77332     645.2120     444.5175   1415.77332     645.2120     444.5175
   1415.75806     645.4847     444.5340   1415.75806     645.4847     444.5340
   1415.74280     643.3035     444.1820   1415.74280     643.3035     444.1820
   1415.72754     643.7649     444.0711   1415.72754     643.7649     444.0711
   1415.71228     642.8521     444.4982   1415.71228     642.8521     444.4982
   1415.69702     642.7100     444.9279   1415.69702     642.7100     444.9279
   1415.68176     642.8608     444.3792   1415.68176     642.8608     444.3792
   1415.66650     641.9678     444.4793   1415.66650     641.9678     444.4793
   1415.65125     641.0556     443.3044   1415.65125     641.0556     443.3044
   1415.63599     641.4680     443.8941   1415.63599     641.4680     443.8941
   1415.62073     640.5086     443.7523   1415.62073     640.5086     443.7523
   1415.60547     639.3333     444.1502   1415.60547     639.3333     444.1502
   1415.59021     640.0157     443.7646   1415.59021     640.0157     443.7646
   1415.57495     638.4203     443.0758   1415.57495     638.4203     443.0758
   1415.55969     637.9075     443.7563   1415.55969     637.9075     443.7563
   1415.54443     637.4033     443.5755   1415.54443     637.4033     443.5755
   1415.52917     636.9313     443.1257   1415.52917     636.9313     443.1257
   1415.51392     635.5327     442.7560   1415.51392     635.5327     442.7560
   1415.49866     635.1810     443.0728   1415.49866     635.1810     443.0728
   1415.48340     635.3967     443.0564   1415.48340     635.3967     443.0564
   1415.46814     633.9324     442.6606   1415.46814     633.9324     442.6606
   1415.45288     633.7988     443.2143   1415.45288     633.7988     443.2143
   1415.43762     631.8749     441.6872   1415.43762     631.8749     441.6872
   1415.42236     632.4535     442.4869   1415.42236     632.4535     442.4869
   1415.40710     631.3434     441.9601   1415.40710     631.3434     441.9601
   1415.39185     630.4232     441.5325   1415.39185     630.4232     441.5325
   1415.37659     630.0989     442.0056   1415.37659     630.0989     442.0056
   1415.36133     628.9289     440.9118   1415.36133     628.9289     440.9118
   1415.34607     629.3580     441.2435   1415.34607     629.3580     441.2435
   1415.33081     627.0284     440.2586   1415.33081     627.0284     440.2586
   1415.31555     626.5797     440.4333   1415.31555     626.5797     440.4333
   1415.30029     625.7125     440.6066   1415.30029     625.7125     440.6066
   1415.28503     624.7865     440.6569   1415.28503     624.7865     440.6569
   1415.26978     623.7825     440.0889   1415.26978     623.7825     440.0889
   1415.25452     623.6829     440.2090   1415.25452     623.6829     440.2090
   1415.23926     621.8882     439.3272   1415.23926     621.8882     439.3272
   1415.22400     620.8612     438.9159   1415.22400     620.8612     438.9159
   1415.20874     619.9377     438.6154   1415.20874     619.9377     438.6154
   1415.19348     618.2726     438.3517   1415.19348     618.2726     438.3517
   1415.17822     617.9849     438.5728   1415.17822     617.9849     438.5728
   1415.16296     617.3218     437.7208   1415.16296     617.3218     437.7208
   1415.14771     617.1359     437.1470   1415.14771     617.1359     437.1470
   1415.13245     614.9667     437.6964   1415.13245     614.9667     437.6964
   1415.11719     614.3887     436.8523   1415.11719     614.3887     436.8523
   1415.10193     612.5403     436.3143   1415.10193     612.5403     436.3143
   1415.08667     612.6188     436.3574   1415.08667     612.6188     436.3574
   1415.07141     610.9849     435.4422   1415.07141     610.9849     435.4422
   1415.05615     609.7132     435.7800   1415.05615     609.7132     435.7800
   1415.04089     608.1821     434.5143   1415.04089     608.1821     434.5143
   1415.02563     607.8327     433.8029   1415.02563     607.8327     433.8029
   1415.01038     605.7433     433.8285   1415.01038     605.7433     433.8285
   1414.99512     604.9874     433.0710   1414.99512     604.9874     433.0710
   1414.97986     602.9043     432.3947   1414.97986     602.9043     432.3947
   1414.96460     602.2545     431.8177   1414.96460     602.2545     431.8177
   1414.94934     601.4946     431.2063   1414.94934     601.4946     431.2063
   1414.93408     599.9442     431.1712   1414.93408     599.9442     431.1712
   1414.91882     598.2630     430.9320   1414.91882     598.2630     430.9320
   1414.90356     597.7872     430.0151   1414.90356     597.7872     430.0151
   1414.88831     596.3853     429.9780   1414.88831     596.3853     429.9780
   1414.87305     594.7781     429.0324   1414.87305     594.7781     429.0324
   1414.85779     593.5308     427.8127   1414.85779     593.5308     427.8127
   1414.84253     590.9409     426.8983   1414.84253     590.9409     426.8983
   1414.82727     591.0623     427.0491   1414.82727     591.0623     427.0491
   1414.81201     589.3686     426.0548   1414.81201     589.3686     426.0548
   1414.79675     587.3340     425.5373   1414.79675     587.3340     425.5373
   1414.78149     586.8047     425.5147   1414.78149     586.8047     425.5147
   1414.76624     585.5200     423.8108   1414.76624     585.5200     423.8108
   1414.75098     583.2272     423.4660   1414.75098     583.2272     423.4660
   1414.73572     582.2990     423.5147   1414.73572     582.2990     423.5147
   1414.72046     580.6935     422.0372   1414.72046     580.6935     422.0372
   1414.70520     579.2883     421.2366   1414.70520     579.2883     421.2366
   1414.68994     576.9605     420.5013   1414.68994     576.9605     420.5013
   1414.67468     576.5425     418.8786   1414.67468     576.5425     418.8786
   1414.65942     574.3676     418.4583   1414.65942     574.3676     418.4583
   1414.64417     572.1276     417.8277   1414.64417     572.1276     417.8277
   1414.62891     570.0190     416.6616   1414.62891     570.0190     416.6616
   1414.61365     569.3521     416.3037   1414.61365     569.3521     416.3037
   1414.59839     567.4431     415.6951   1414.59839     567.4431     415.6951
   1414.58313     565.4603     414.3052   1414.58313     565.4603     414.3052
   1414.56787     563.8531     412.6779   1414.56787     563.8531     412.6779
   1414.55261     562.7250     412.7502   1414.55261     562.7250     412.7502
   1414.53735     560.1669     412.0798   1414.53735     560.1669     412.0798
   1414.52209     558.5006     410.6779   1414.52209     558.5006     410.6779
   1414.50684     556.9595     409.9188   1414.50684     556.9595     409.9188
   1414.49158     555.2943     409.3124   1414.49158     555.2943     409.3124
   1414.47632     552.4886     408.5152   1414.47632     552.4886     408.5152
   1414.46106     550.5966     406.7267   1414.46106     550.5966     406.7267
   1414.44580     548.8065     406.1078   1414.44580     548.8065     406.1078
   1414.43054     546.7715     404.6832   1414.43054     546.7715     404.6832
   1414.41528     544.6201     404.1532   1414.41528     544.6201     404.1532
   1414.40002     543.1904     402.3237   1414.40002     543.1904     402.3237
   1414.38477     541.1727     401.4490   1414.38477     541.1727     401.4490
   1414.36951     539.3573     400.1531   1414.36951     539.3573     400.1531
   1414.35425     537.2847     399.5566   1414.35425     537.2847     399.5566
   1414.33899     534.2772     398.4791   1414.33899     534.2772     398.4791
   1414.32373     532.2324     397.7028   1414.32373     532.2324     397.7028
   1414.30847     530.7905     396.2022   1414.30847     530.7905     396.2022
   1414.29321     528.8946     395.3116   1414.29321     528.8946     395.3116
   1414.27795     527.0301     394.2683   1414.27795     527.0301     394.2683
   1414.26270     524.1030     393.3857   1414.26270     524.1030     393.3857
   1414.24744     522.1829     391.4290   1414.24744     522.1829     391.4290
   1414.23218     519.5681     390.2395   1414.23218     519.5681     390.2395
   1414.21692     517.1082     389.9264   1414.21692     517.1082     389.9264
   1414.20166     516.1167     387.9935   1414.20166     516.1167     387.9935
   1414.18640     514.3048     386.7112   1414.18640     514.3048     386.7112
   1414.17114     511.2955     385.6359   1414.17114     511.2955     385.6359
   1414.15588     509.3939     383.7847   1414.15588     509.3939     383.7847
   1414.14062     507.3599     382.7214   1414.14062     507.3599     382.7214
   1414.12537     505.3475     381.4121   1414.12537     505.3475     381.4121
   1414.11011     502.2938     380.2600   1414.11011     502.2938     380.2600
   1414.09485     500.1321     378.7978   1414.09485     500.1321     378.7978
   1414.07959     497.6879     378.2072   1414.07959     497.6879     378.2072
   1414.06433     494.8898     376.6552   1414.06433     494.8898     376.6552
   1414.04907     493.1163     375.2954   1414.04907     493.1163     375.2954
   1414.03381     490.4407     373.0244   1414.03381     490.4407     373.0244
   1414.01855     488.7495     371.5479   1414.01855     488.7495     371.5479
   1414.00330     486.1474     371.0579   1414.00330     486.1474     371.0579
   1413.98804     484.4877     369.9557   1413.98804     484.4877     369.9557
   1413.97278     481.2066     368.0332   1413.97278     481.2066     368.0332
   1413.95752     478.8265     366.7020   1413.95752     478.8265     366.7020
   1413.94226     476.4763     365.1489   1413.94226     476.4763     365.1489
   1413.92700     473.7540     364.2484   1413.92700     473.7540     364.2484
   1413.91174     471.4344     362.2302   1413.91174     471.4344     362.2302
   1413.89648     468.9285     360.7318   1413.89648     468.9285     360.7318
   1413.88123     467.0450     359.8157   1413.88123     467.0450     359.8157
   1413.86597     465.0302     358.5085   1413.86597     465.0302     358.5085
   1413.85071     462.2344     356.6547   1413.85071     462.2344     356.6547
   1413.83545     459.5448     355.5493   1413.83545     459.5448     355.5493
   1413.82019     456.8593     353.8078   1413.82019     456.8593     353.8078
   1413.80493     454.6720     352.4542   1413.80493     454.6720     352.4542
   1413.78967     451.6476     351.1422   1413.78967     451.6476     351.1422
   1413.77441     449.6432     349.3499   1413.77441     449.6432     349.3499
   1413.75916     447.0607     348.4149   1413.75916     447.0607     348.4149
   1413.74390     445.2737     346.9970   1413.74390     445.2737     346.9970
   1413.72864     442.4102     344.9448   1413.72864     442.4102     344.9448
   1413.71338     439.6261     343.0547   1413.71338     439.6261     343.0547
   1413.69812     436.5641     342.0097   1413.69812     436.5641     342.0097
   1413.68286     434.7078     340.6155   1413.68286     434.7078     340.6155
   1413.66760     431.6652     339.2745   1413.66760     431.6652     339.2745
   1413.65234     429.6927     337.5574   1413.65234     429.6927     337.5574
   1413.63708     426.8663     336.1453   1413.63708     426.8663     336.1453
   1413.62183     424.7857     334.8038   1413.62183     424.7857     334.8038
   1413.60657     421.7564     332.8989   1413.60657     421.7564     332.8989
   1413.59131     419.4669     331.8112   1413.59131     419.4669     331.8112
   1413.57605     417.3560     329.7861   1413.57605     417.3560     329.7861
   1413.56079     414.2430     328.6104   1413.56079     414.2430     328.6104
   1413.54553     412.0431     326.4376   1413.54553     412.0431     326.4376
   1413.53027     409.4268     325.8380   1413.53027     409.4268     325.8380
   1413.51501     407.3918     323.9375   1413.51501     407.3918     323.9375
   1413.49976     405.0441     323.0556   1413.49976     405.0441     323.0556
   1413.48450     402.4744     321.6147   1413.48450     402.4744     321.6147
   1413.46924     399.8626     319.7112   1413.46924     399.8626     319.7112
   1413.45398     396.4490     318.0780   1413.45398     396.4490     318.0780
   1413.43872     395.2069     316.6001   1413.43872     395.2069     316.6001
   1413.42346     392.3959     315.7944   1413.42346     392.3959     315.7944
   1413.40820     390.5534     313.3375   1413.40820     390.5534     313.3375
   1413.39294     387.6044     312.0389   1413.39294     387.6044     312.0389
   1413.37769     386.2085     310.6506   1413.37769     386.2085     310.6506
   1413.36243     383.5714     309.2506   1413.36243     383.5714     309.2506
   1413.34717     381.5967     308.3690   1413.34717     381.5967     308.3690
   1413.33191     378.6877     306.5652   1413.33191     378.6877     306.5652
   1413.31665     377.0425     305.0461   1413.31665     377.0425     305.0461
   1413.30139     374.4927     303.7105   1413.30139     374.4927     303.7105
   1413.28613     371.7529     302.5572   1413.28613     371.7529     302.5572
   1413.27087     369.7554     300.9582   1413.27087     369.7554     300.9582
   1413.25562     367.0058     299.6865   1413.25562     367.0058     299.6865
   1413.24036     364.8872     298.7963   1413.24036     364.8872     298.7963
   1413.22510     361.9899     297.2443   1413.22510     361.9899     297.2443
   1413.20984     360.7633     295.7988   1413.20984     360.7633     295.7988
   1413.19458     358.6188     294.1349   1413.19458     358.6188     294.1349
   1413.17932     356.3932     293.2023   1413.17932     356.3932     293.2023
   1413.16406     354.4647     292.0749   1413.16406     354.4647     292.0749
   1413.14880     352.5302     290.7651   1413.14880     352.5302     290.7651
   1413.13354     350.2147     289.3620   1413.13354     350.2147     289.3620
   1413.11829     348.1333     287.8418   1413.11829     348.1333     287.8418
   1413.10303     346.1905     286.5675   1413.10303     346.1905     286.5675
   1413.08777     343.9024     285.0816   1413.08777     343.9024     285.0816
   1413.07251     342.4517     284.2033   1413.07251     342.4517     284.2033
   1413.05725     339.9322     282.7619   1413.05725     339.9322     282.7619
   1413.04199     338.4289     282.0592   1413.04199     338.4289     282.0592
   1413.02673     336.6375     281.2414   1413.02673     336.6375     281.2414
   1413.01147     334.5635     280.1617   1413.01147     334.5635     280.1617
   1412.99622     333.2378     278.8994   1412.99622     333.2378     278.8994
   1412.98096     330.3961     278.3269   1412.98096     330.3961     278.3269
   1412.96570     328.9506     277.0004   1412.96570     328.9506     277.0004
   1412.95044     327.9410     275.9322   1412.95044     327.9410     275.9322
   1412.93518     325.9138     274.4258   1412.93518     325.9138     274.4258
   1412.91992     324.5171     273.7012   1412.91992     324.5171     273.7012
   1412.90466     322.4867     273.0528   1412.90466     322.4867     273.0528
   1412.88940     321.8381     272.0944   1412.88940     321.8381     272.0944
   1412.87415     319.3834     271.1580   1412.87415     319.3834     271.1580
   1412.85889     318.1573     270.2981   1412.85889     318.1573     270.2981
   1412.84363     316.7691     269.5872   1412.84363     316.7691     269.5872
   1412.82837     315.3391     268.8648   1412.82837     315.3391     268.8648
   1412.81311     313.4808     268.1007   1412.81311     313.4808     268.1007
   1412.79785     312.1046     266.7518   1412.79785     312.1046     266.7518
   1412.78259     311.3706     266.1753   1412.78259     311.3706     266.1753
   1412.76733     309.7365     265.6089   1412.76733     309.7365     265.6089
   1412.75208     308.8192     264.7800   1412.75208     308.8192     264.7800
   1412.73682     307.4937     264.1725   1412.73682     307.4937     264.1725
   1412.72156     306.3961     263.8755   1412.72156     306.3961     263.8755
   1412.70630     305.0960     263.5023   1412.70630     305.0960     263.5023
   1412.69104     303.7202     262.6742   1412.69104     303.7202     262.6742
   1412.67578     303.1246     262.6675   1412.67578     303.1246     262.6675
   1412.66052     301.9407     262.0759   1412.66052     301.9407     262.0759
   1412.64526     300.8601     261.3684   1412.64526     300.8601     261.3684
   1412.63000     300.3098     260.8643   1412.63000     300.3098     260.8643
   1412.61475     299.1304     260.4869   1412.61475     299.1304     260.4869
   1412.59949     298.4978     260.4616   1412.59949     298.4978     260.4616
   1412.58423     297.5724     260.2636   1412.58423     297.5724     260.2636
   1412.56897     297.2641     260.2128   1412.56897     297.2641     260.2128
   1412.55371     296.4828     260.2151   1412.55371     296.4828     260.2151
   1412.53845     295.5587     259.8611   1412.53845     295.5587     259.8611
   1412.52319     295.4149     259.3714   1412.52319     295.4149     259.3714
   1412.50793     294.0353     259.9669   1412.50793     294.0353     259.9669
   1412.49268     293.9104     259.7930   1412.49268     293.9104     259.7930
   1412.47742     293.7515     259.6992   1412.47742     293.7515     259.6992
   1412.46216     293.1042     259.9754   1412.46216     293.1042     259.9754
   1412.44690     292.9057     259.9927   1412.44690     292.9057     259.9927
   1412.43164     292.4631     260.5047   1412.43164     292.4631     260.5047
   1412.41638     292.3376     260.5930   1412.41638     292.3376     260.5930
   1412.40112     291.6240     260.5891   1412.40112     291.6240     260.5891
   1412.38586     291.6365     261.1191   1412.38586     291.6365     261.1191
   1412.37061     291.4226     261.6157   1412.37061     291.4226     261.6157
   1412.35535     291.8763     262.0702   1412.35535     291.8763     262.0702
   1412.34009     291.7505     262.3224   1412.34009     291.7505     262.3224
   1412.32483     291.4388     262.7891   1412.32483     291.4388     262.7891
   1412.30957     291.2007     263.4663   1412.30957     291.2007     263.4663
   1412.29431     291.5030     264.3469   1412.29431     291.5030     264.3469
   1412.27905     291.9715     264.5824   1412.27905     291.9715     264.5824
   1412.26379     292.1081     265.0377   1412.26379     292.1081     265.0377
   1412.24854     292.1101     266.0979   1412.24854     292.1101     266.0979
   1412.23328     292.4669     267.0664   1412.23328     292.4669     267.0664
   1412.21802     292.7406     267.6718   1412.21802     292.7406     267.6718
   1412.20276     293.0952     268.8235   1412.20276     293.0952     268.8235