#     FILENAME=!Skynet_57533_lach-hhg-190-2_20786_21213.cyb.fits
#     BASENAME=Skynet_57533_lach-hhg-190-2_20786_21213
#     SRC_NAME=lach-hhg-190-2
#     OBSERVER=ccmadison16_9505
#     DATE_OBS=2016-05-25T18:43:55.180
#        OBSID=20786
#      SCANNUM=21213
#          MJD=57533.7816
#          UTC=67525
#     SCANTYPE=track
#     DATAMODE=HIRES
#     TUNEFREQ=1420.0000
# Actual_FREQ1=1420.0000
# Actual_FREQ2=1420.0000
#    LO1Tuning=6870.000
#     RFFILTER=1355_1435
#        OBSBW=-15.6250
#        NCHAN=1024 
#        FOCUS=37.0709
#           RA=06:07:43.73
#          DEC=20:17:23.64
#      RA(hrs)=6.128800
#     DEC(deg)=20.289900
#    AZIM(deg)=158.415
#    ELEV(deg)=70.682
#     IFattens=10.00, 9.00
#      WARNING=None
#    TCAL_XL1=7.9635
#    TCAL_YR1=9.1340
#    TCAL_XL2=7.9635
#    TCAL_YR2=9.1340
#     TRX_XL1=11.7060
#     TRX_YR1=11.7060
#     TRX_XL2=11.7060
#     TRX_YR2=11.7060
#        TAVE=1.0000
#Freq1(MHz)          XL1          YR1  Freq2(MHz)          XL2          YR2 

   1427.81250     380.5434     279.6094   1427.81250     380.5434     279.6094
   1427.79724     381.9438     280.1118   1427.79724     381.9438     280.1118
   1427.78198     382.6664     281.5300   1427.78198     382.6664     281.5300
   1427.76672     382.9187     282.2907   1427.76672     382.9187     282.2907
   1427.75146     383.8765     283.2288   1427.75146     383.8765     283.2288
   1427.73621     384.4237     284.1714   1427.73621     384.4237     284.1714
   1427.72095     385.8643     285.6115   1427.72095     385.8643     285.6115
   1427.70569     387.1272     286.4591   1427.70569     387.1272     286.4591
   1427.69043     387.5523     287.1805   1427.69043     387.5523     287.1805
   1427.67517     389.2067     288.4456   1427.67517     389.2067     288.4456
   1427.65991     389.9720     289.5943   1427.65991     389.9720     289.5943
   1427.64465     391.3749     291.2354   1427.64465     391.3749     291.2354
   1427.62939     393.0101     292.8124   1427.62939     393.0101     292.8124
   1427.61414     394.1157     293.6082   1427.61414     394.1157     293.6082
   1427.59888     395.9784     294.7248   1427.59888     395.9784     294.7248
   1427.58362     397.6039     295.8997   1427.58362     397.6039     295.8997
   1427.56836     398.1912     297.1488   1427.56836     398.1912     297.1488
   1427.55310     400.1960     298.7255   1427.55310     400.1960     298.7255
   1427.53784     402.8886     300.3176   1427.53784     402.8886     300.3176
   1427.52258     404.0423     301.6155   1427.52258     404.0423     301.6155
   1427.50732     405.7510     303.5930   1427.50732     405.7510     303.5930
   1427.49207     407.5743     305.0070   1427.49207     407.5743     305.0070
   1427.47681     409.2052     306.3277   1427.47681     409.2052     306.3277
   1427.46155     411.3107     307.8170   1427.46155     411.3107     307.8170
   1427.44629     412.6342     309.0865   1427.44629     412.6342     309.0865
   1427.43103     415.4634     311.0356   1427.43103     415.4634     311.0356
   1427.41577     417.4831     313.0807   1427.41577     417.4831     313.0807
   1427.40051     419.1489     314.2619   1427.40051     419.1489     314.2619
   1427.38525     422.1506     316.5675   1427.38525     422.1506     316.5675
   1427.37000     423.5816     318.1283   1427.37000     423.5816     318.1283
   1427.35474     426.1733     319.4793   1427.35474     426.1733     319.4793
   1427.33948     428.0343     321.2818   1427.33948     428.0343     321.2818
   1427.32422     430.8734     323.2436   1427.32422     430.8734     323.2436
   1427.30896     433.4791     324.9579   1427.30896     433.4791     324.9579
   1427.29370     435.3231     327.1158   1427.29370     435.3231     327.1158
   1427.27844     437.8707     328.4832   1427.27844     437.8707     328.4832
   1427.26318     440.1151     330.8273   1427.26318     440.1151     330.8273
   1427.24792     442.2386     332.9574   1427.24792     442.2386     332.9574
   1427.23267     446.0022     334.0760   1427.23267     446.0022     334.0760
   1427.21741     448.4097     336.5941   1427.21741     448.4097     336.5941
   1427.20215     450.9699     338.5729   1427.20215     450.9699     338.5729
   1427.18689     453.4982     340.1158   1427.18689     453.4982     340.1158
   1427.17163     456.6387     342.3813   1427.17163     456.6387     342.3813
   1427.15637     458.7540     344.0645   1427.15637     458.7540     344.0645
   1427.14111     461.9576     346.2094   1427.14111     461.9576     346.2094
   1427.12585     465.2538     348.1742   1427.12585     465.2538     348.1742
   1427.11060     468.6199     349.9799   1427.11060     468.6199     349.9799
   1427.09534     470.6847     352.8040   1427.09534     470.6847     352.8040
   1427.08008     473.3455     353.8022   1427.08008     473.3455     353.8022
   1427.06482     477.0336     356.3429   1427.06482     477.0336     356.3429
   1427.04956     480.3743     358.1617   1427.04956     480.3743     358.1617
   1427.03430     482.9332     360.9942   1427.03430     482.9332     360.9942
   1427.01904     485.9527     362.5745   1427.01904     485.9527     362.5745
   1427.00378     489.4315     364.9691   1427.00378     489.4315     364.9691
   1426.98853     492.9389     367.2319   1426.98853     492.9389     367.2319
   1426.97327     496.0727     368.8113   1426.97327     496.0727     368.8113
   1426.95801     499.3945     371.3398   1426.95801     499.3945     371.3398
   1426.94275     502.6387     373.5125   1426.94275     502.6387     373.5125
   1426.92749     505.7289     375.6014   1426.92749     505.7289     375.6014
   1426.91223     509.3947     377.7751   1426.91223     509.3947     377.7751
   1426.89697     512.3474     379.7652   1426.89697     512.3474     379.7652
   1426.88171     515.7122     381.9267   1426.88171     515.7122     381.9267
   1426.86646     519.5049     384.3990   1426.86646     519.5049     384.3990
   1426.85120     521.8341     386.6410   1426.85120     521.8341     386.6410
   1426.83594     525.4189     388.4533   1426.83594     525.4189     388.4533
   1426.82068     529.8537     391.0696   1426.82068     529.8537     391.0696
   1426.80542     532.3456     393.2248   1426.80542     532.3456     393.2248
   1426.79016     536.2838     394.5063   1426.79016     536.2838     394.5063
   1426.77490     539.7725     397.2517   1426.77490     539.7725     397.2517
   1426.75964     542.9128     399.3566   1426.75964     542.9128     399.3566
   1426.74438     546.5780     400.8767   1426.74438     546.5780     400.8767
   1426.72913     550.1464     403.0466   1426.72913     550.1464     403.0466
   1426.71387     553.8257     405.5132   1426.71387     553.8257     405.5132
   1426.69861     557.1330     407.7557   1426.69861     557.1330     407.7557
   1426.68335     560.1567     410.0821   1426.68335     560.1567     410.0821
   1426.66809     564.0942     412.3112   1426.66809     564.0942     412.3112
   1426.65283     567.5085     414.1311   1426.65283     567.5085     414.1311
   1426.63757     571.1945     416.5052   1426.63757     571.1945     416.5052
   1426.62231     575.0540     421.8971   1426.62231     575.0540     421.8971
   1426.60706     578.4024     421.5193   1426.60706     578.4024     421.5193
   1426.59180     580.9314     423.0308   1426.59180     580.9314     423.0308
   1426.57654     585.8353     424.8438   1426.57654     585.8353     424.8438
   1426.56128     588.2592     426.5609   1426.56128     588.2592     426.5609
   1426.54602     591.1230     429.1657   1426.54602     591.1230     429.1657
   1426.53076     595.5245     431.3238   1426.53076     595.5245     431.3238
   1426.51550     600.1313     433.0798   1426.51550     600.1313     433.0798
   1426.50024     602.4180     435.0502   1426.50024     602.4180     435.0502
   1426.48499     606.1088     436.7630   1426.48499     606.1088     436.7630
   1426.46973     609.8719     438.9501   1426.46973     609.8719     438.9501
   1426.45447     612.2825     440.7139   1426.45447     612.2825     440.7139
   1426.43921     616.8226     442.7673   1426.43921     616.8226     442.7673
   1426.42395     620.8757     444.9506   1426.42395     620.8757     444.9506
   1426.40869     623.5989     447.0754   1426.40869     623.5989     447.0754
   1426.39343     627.4341     448.7522   1426.39343     627.4341     448.7522
   1426.37817     631.1909     450.5057   1426.37817     631.1909     450.5057
   1426.36292     633.5371     452.7883   1426.36292     633.5371     452.7883
   1426.34766     638.1208     453.9649   1426.34766     638.1208     453.9649
   1426.33240     641.1069     456.6992   1426.33240     641.1069     456.6992
   1426.31714     644.1406     458.5023   1426.31714     644.1406     458.5023
   1426.30188     647.7058     460.3580   1426.30188     647.7058     460.3580
   1426.28662     651.1516     462.6883   1426.28662     651.1516     462.6883
   1426.27136     653.1522     463.7412   1426.27136     653.1522     463.7412
   1426.25610     657.9960     465.4926   1426.25610     657.9960     465.4926
   1426.24084     660.5624     468.6998   1426.24084     660.5624     468.6998
   1426.22559     664.4398     470.0085   1426.22559     664.4398     470.0085
   1426.21033     667.7361     471.4922   1426.21033     667.7361     471.4922
   1426.19507     671.1823     471.5956   1426.19507     671.1823     471.5956
   1426.17981     674.1828     474.0532   1426.17981     674.1828     474.0532
   1426.16455     676.8346     476.2754   1426.16455     676.8346     476.2754
   1426.14929     678.8175     477.7920   1426.14929     678.8175     477.7920
   1426.13403     683.3373     479.5916   1426.13403     683.3373     479.5916
   1426.11877     686.1161     480.9964   1426.11877     686.1161     480.9964
   1426.10352     688.6718     482.7926   1426.10352     688.6718     482.7926
   1426.08826     693.1862     484.1809   1426.08826     693.1862     484.1809
   1426.07300     695.2300     486.2154   1426.07300     695.2300     486.2154
   1426.05774     698.3087     487.0810   1426.05774     698.3087     487.0810
   1426.04248     700.8427     489.7974   1426.04248     700.8427     489.7974
   1426.02722     704.1047     490.8625   1426.02722     704.1047     490.8625
   1426.01196     707.4341     491.7879   1426.01196     707.4341     491.7879
   1425.99670     709.1057     494.2133   1425.99670     709.1057     494.2133
   1425.98145     713.5278     495.0591   1425.98145     713.5278     495.0591
   1425.96619     715.8472     495.9786   1425.96619     715.8472     495.9786
   1425.95093     717.9592     497.8044   1425.95093     717.9592     497.8044
   1425.93567     722.2479     499.6253   1425.93567     722.2479     499.6253
   1425.92041     724.2620     500.5238   1425.92041     724.2620     500.5238
   1425.90515     726.1168     502.2867   1425.90515     726.1168     502.2867
   1425.88989     729.1301     503.1484   1425.88989     729.1301     503.1484
   1425.87463     731.6075     504.3934   1425.87463     731.6075     504.3934
   1425.85938     734.8439     506.4474   1425.85938     734.8439     506.4474
   1425.84412     736.3604     507.0378   1425.84412     736.3604     507.0378
   1425.82886     739.5163     509.3794   1425.82886     739.5163     509.3794
   1425.81360     741.4643     510.0016   1425.81360     741.4643     510.0016
   1425.79834     743.3712     512.2549   1425.79834     743.3712     512.2549
   1425.78308     746.8979     512.5788   1425.78308     746.8979     512.5788
   1425.76782     748.1014     513.4290   1425.76782     748.1014     513.4290
   1425.75256     749.9717     515.2806   1425.75256     749.9717     515.2806
   1425.73730     753.9128     515.6049   1425.73730     753.9128     515.6049
   1425.72205     755.1982     517.5695   1425.72205     755.1982     517.5695
   1425.70679     758.1531     518.1823   1425.70679     758.1531     518.1823
   1425.69153     759.9509     518.9367   1425.69153     759.9509     518.9367
   1425.67627     762.0175     520.8799   1425.67627     762.0175     520.8799
   1425.66101     764.3043     520.9859   1425.66101     764.3043     520.9859
   1425.64575     765.1766     522.2978   1425.64575     765.1766     522.2978
   1425.63049     767.2013     524.4556   1425.63049     767.2013     524.4556
   1425.61523     769.7767     524.6451   1425.61523     769.7767     524.6451
   1425.59998     769.9933     525.4996   1425.59998     769.9933     525.4996
   1425.58472     773.2789     526.8608   1425.58472     773.2789     526.8608
   1425.56946     775.5131     527.3807   1425.56946     775.5131     527.3807
   1425.55420     776.7704     528.6774   1425.55420     776.7704     528.6774
   1425.53894     779.0703     529.6133   1425.53894     779.0703     529.6133
   1425.52368     779.6432     530.4765   1425.52368     779.6432     530.4765
   1425.50842     782.0828     531.3694   1425.50842     782.0828     531.3694
   1425.49316     783.9052     532.5287   1425.49316     783.9052     532.5287
   1425.47791     784.3937     532.5400   1425.47791     784.3937     532.5400
   1425.46265     785.2998     534.1807   1425.46265     785.2998     534.1807
   1425.44739     786.9658     534.4740   1425.44739     786.9658     534.4740
   1425.43213     787.9547     535.4970   1425.43213     787.9547     535.4970
   1425.41687     790.9004     537.1407   1425.41687     790.9004     537.1407
   1425.40161     792.3408     536.4835   1425.40161     792.3408     536.4835
   1425.38635     794.1591     537.6751   1425.38635     794.1591     537.6751
   1425.37109     794.7397     538.4300   1425.37109     794.7397     538.4300
   1425.35583     795.6243     539.4758   1425.35583     795.6243     539.4758
   1425.34058     796.0156     539.4824   1425.34058     796.0156     539.4824
   1425.32532     798.0655     540.8084   1425.32532     798.0655     540.8084
   1425.31006     798.4445     541.6384   1425.31006     798.4445     541.6384
   1425.29480     799.2868     541.8291   1425.29480     799.2868     541.8291
   1425.27954     799.8557     542.1545   1425.27954     799.8557     542.1545
   1425.26428     800.7452     543.3905   1425.26428     800.7452     543.3905
   1425.24902     802.5473     544.7128   1425.24902     802.5473     544.7128
   1425.23376     803.1630     544.2797   1425.23376     803.1630     544.2797
   1425.21851     804.1301     544.6332   1425.21851     804.1301     544.6332
   1425.20325     804.3163     545.6522   1425.20325     804.3163     545.6522
   1425.18799     805.9128     545.7568   1425.18799     805.9128     545.7568
   1425.17273     806.4705     546.4543   1425.17273     806.4705     546.4543
   1425.15747     805.8351     547.1525   1425.15747     805.8351     547.1525
   1425.14221     807.7612     547.4999   1425.14221     807.7612     547.4999
   1425.12695     808.1243     548.8107   1425.12695     808.1243     548.8107
   1425.11169     807.7419     548.5159   1425.11169     807.7419     548.5159
   1425.09644     810.1567     548.5753   1425.09644     810.1567     548.5753
   1425.08118     811.6429     549.6473   1425.08118     811.6429     549.6473
   1425.06592     810.4376     549.9863   1425.06592     810.4376     549.9863
   1425.05066     811.0634     550.3850   1425.05066     811.0634     550.3850
   1425.03540     811.2444     550.5850   1425.03540     811.2444     550.5850
   1425.02014     811.2928     551.4642   1425.02014     811.2928     551.4642
   1425.00488     812.6360     551.1024   1425.00488     812.6360     551.1024
   1424.98962     811.0308     551.6725   1424.98962     811.0308     551.6725
   1424.97437     814.1860     553.5600   1424.97437     814.1860     553.5600
   1424.95911     812.1379     552.2051   1424.95911     812.1379     552.2051
   1424.94385     811.6609     551.9929   1424.94385     811.6609     551.9929
   1424.92859     813.9410     553.2625   1424.92859     813.9410     553.2625
   1424.91333     814.0450     553.3713   1424.91333     814.0450     553.3713
   1424.89807     813.9929     552.9349   1424.89807     813.9929     552.9349
   1424.88281     814.0718     553.5227   1424.88281     814.0718     553.5227
   1424.86755     813.4898     554.2211   1424.86755     813.4898     554.2211
   1424.85229     814.3519     553.7370   1424.85229     814.3519     553.7370
   1424.83704     814.2336     554.9515   1424.83704     814.2336     554.9515
   1424.82178     813.7145     554.2383   1424.82178     813.7145     554.2383
   1424.80652     815.0767     554.3000   1424.80652     815.0767     554.3000
   1424.79126     814.2515     555.8761   1424.79126     814.2515     555.8761
   1424.77600     812.5682     555.7890   1424.77600     812.5682     555.7890
   1424.76074     813.2053     554.9536   1424.76074     813.2053     554.9536
   1424.74548     812.5209     555.9120   1424.74548     812.5209     555.9120
   1424.73022     812.9592     555.7527   1424.73022     812.9592     555.7527
   1424.71497     812.3003     555.7795   1424.71497     812.3003     555.7795
   1424.69971     812.5242     555.5587   1424.69971     812.5242     555.5587
   1424.68445     812.0684     556.3838   1424.68445     812.0684     556.3838
   1424.66919     812.1667     555.8525   1424.66919     812.1667     555.8525
   1424.65393     812.3278     556.6214   1424.65393     812.3278     556.6214
   1424.63867     812.0988     556.4578   1424.63867     812.0988     556.4578
   1424.62341     811.1550     556.3240   1424.62341     811.1550     556.3240
   1424.60815     811.0427     555.9926   1424.60815     811.0427     555.9926
   1424.59290     811.3769     555.9415   1424.59290     811.3769     555.9415
   1424.57764     810.6335     556.4694   1424.57764     810.6335     556.4694
   1424.56238     808.8793     557.0377   1424.56238     808.8793     557.0377
   1424.54712     808.6200     556.0737   1424.54712     808.6200     556.0737
   1424.53186     808.6624     556.9106   1424.53186     808.6624     556.9106
   1424.51660     808.1169     556.5765   1424.51660     808.1169     556.5765
   1424.50134     808.5740     555.7281   1424.50134     808.5740     555.7281
   1424.48608     806.6145     555.8683   1424.48608     806.6145     555.8683
   1424.47083     806.8366     556.1575   1424.47083     806.8366     556.1575
   1424.45557     805.2576     556.4066   1424.45557     805.2576     556.4066
   1424.44031     804.4210     556.0289   1424.44031     804.4210     556.0289
   1424.42505     804.1315     555.6786   1424.42505     804.1315     555.6786
   1424.40979     804.0549     556.0079   1424.40979     804.0549     556.0079
   1424.39453     802.7081     555.0636   1424.39453     802.7081     555.0636
   1424.37927     802.9901     554.5081   1424.37927     802.9901     554.5081
   1424.36401     801.4519     555.4506   1424.36401     801.4519     555.4506
   1424.34875     801.0570     555.6567   1424.34875     801.0570     555.6567
   1424.33350     801.2027     553.9274   1424.33350     801.2027     553.9274
   1424.31824     800.6135     554.7378   1424.31824     800.6135     554.7378
   1424.30298     800.1985     554.8457   1424.30298     800.1985     554.8457
   1424.28772     797.5822     555.4266   1424.28772     797.5822     555.4266
   1424.27246     796.9504     555.2786   1424.27246     796.9504     555.2786
   1424.25720     797.8864     554.2670   1424.25720     797.8864     554.2670
   1424.24194     797.2612     554.2447   1424.24194     797.2612     554.2447
   1424.22668     795.5884     553.2411   1424.22668     795.5884     553.2411
   1424.21143     793.6343     552.2855   1424.21143     793.6343     552.2855
   1424.19617     794.1902     553.0760   1424.19617     794.1902     553.0760
   1424.18091     794.3503     553.1109   1424.18091     794.3503     553.1109
   1424.16565     792.9996     552.8968   1424.16565     792.9996     552.8968
   1424.15039     792.4563     552.8013   1424.15039     792.4563     552.8013
   1424.13513     788.9622     551.8949   1424.13513     788.9622     551.8949
   1424.11987     790.9027     552.0883   1424.11987     790.9027     552.0883
   1424.10461     788.6589     551.8499   1424.10461     788.6589     551.8499
   1424.08936     788.7809     551.2861   1424.08936     788.7809     551.2861
   1424.07410     787.1033     551.0759   1424.07410     787.1033     551.0759
   1424.05884     787.1056     551.1903   1424.05884     787.1056     551.1903
   1424.04358     787.3456     550.1859   1424.04358     787.3456     550.1859
   1424.02832     785.0245     550.7946   1424.02832     785.0245     550.7946
   1424.01306     784.6132     549.5560   1424.01306     784.6132     549.5560
   1423.99780     783.7574     549.4308   1423.99780     783.7574     549.4308
   1423.98254     783.5025     549.4113   1423.98254     783.5025     549.4113
   1423.96729     782.7093     547.9091   1423.96729     782.7093     547.9091
   1423.95203     780.0845     547.9714   1423.95203     780.0845     547.9714
   1423.93677     780.6379     547.2484   1423.93677     780.6379     547.2484
   1423.92151     779.4280     547.5399   1423.92151     779.4280     547.5399
   1423.90625     778.0897     547.6989   1423.90625     778.0897     547.6989
   1423.89099     779.1604     546.8425   1423.89099     779.1604     546.8425
   1423.87573     777.1314     546.7237   1423.87573     777.1314     546.7237
   1423.86047     775.8695     545.4853   1423.86047     775.8695     545.4853
   1423.84521     775.1575     544.7264   1423.84521     775.1575     544.7264
   1423.82996     774.9263     545.0293   1423.82996     774.9263     545.0293
   1423.81470     774.8469     544.4941   1423.81470     774.8469     544.4941
   1423.79944     773.5131     543.6219   1423.79944     773.5131     543.6219
   1423.78418     772.2018     543.1582   1423.78418     772.2018     543.1582
   1423.76892     772.4487     543.2610   1423.76892     772.4487     543.2610
   1423.75366     770.0368     542.6703   1423.75366     770.0368     542.6703
   1423.73840     771.2130     541.9855   1423.73840     771.2130     541.9855
   1423.72314     769.2184     542.0126   1423.72314     769.2184     542.0126
   1423.70789     768.9285     540.9313   1423.70789     768.9285     540.9313
   1423.69263     767.6921     540.3012   1423.69263     767.6921     540.3012
   1423.67737     767.2706     539.8601   1423.67737     767.2706     539.8601
   1423.66211     765.7440     539.1241   1423.66211     765.7440     539.1241
   1423.64685     764.1261     539.0555   1423.64685     764.1261     539.0555
   1423.63159     764.0416     537.7504   1423.63159     764.0416     537.7504
   1423.61633     762.9822     537.6805   1423.61633     762.9822     537.6805
   1423.60107     763.0570     537.3419   1423.60107     763.0570     537.3419
   1423.58582     762.2942     536.7556   1423.58582     762.2942     536.7556
   1423.57056     761.4237     536.5356   1423.57056     761.4237     536.5356
   1423.55530     760.1306     536.6332   1423.55530     760.1306     536.6332
   1423.54004     759.9756     535.4360   1423.54004     759.9756     535.4360
   1423.52478     758.8915     535.3760   1423.52478     758.8915     535.3760
   1423.50952     757.5084     534.9827   1423.50952     757.5084     534.9827
   1423.49426     756.9742     533.2355   1423.49426     756.9742     533.2355
   1423.47900     756.4688     532.5336   1423.47900     756.4688     532.5336
   1423.46375     756.9914     532.8819   1423.46375     756.9914     532.8819
   1423.44849     755.7570     532.1633   1423.44849     755.7570     532.1633
   1423.43323     755.8197     531.9794   1423.43323     755.8197     531.9794
   1423.41797     754.1356     531.3232   1423.41797     754.1356     531.3232
   1423.40271     752.6891     529.6426   1423.40271     752.6891     529.6426
   1423.38745     752.3765     529.2496   1423.38745     752.3765     529.2496
   1423.37219     751.0327     528.4208   1423.37219     751.0327     528.4208
   1423.35693     751.0239     527.5542   1423.35693     751.0239     527.5542
   1423.34167     751.0796     527.2624   1423.34167     751.0796     527.2624
   1423.32642     750.2501     526.7196   1423.32642     750.2501     526.7196
   1423.31116     749.1734     525.9961   1423.31116     749.1734     525.9961
   1423.29590     747.0140     524.4125   1423.29590     747.0140     524.4125
   1423.28064     747.5640     524.7804   1423.28064     747.5640     524.7804
   1423.26538     746.7335     523.9512   1423.26538     746.7335     523.9512
   1423.25012     746.5139     523.1226   1423.25012     746.5139     523.1226
   1423.23486     746.0767     522.3638   1423.23486     746.0767     522.3638
   1423.21960     745.3257     521.8727   1423.21960     745.3257     521.8727
   1423.20435     744.4726     520.6677   1423.20435     744.4726     520.6677
   1423.18909     744.6723     520.9577   1423.18909     744.6723     520.9577
   1423.17383     744.2191     519.6874   1423.17383     744.2191     519.6874
   1423.15857     742.8480     518.8691   1423.15857     742.8480     518.8691
   1423.14331     743.1306     517.6164   1423.14331     743.1306     517.6164
   1423.12805     742.3145     517.4417   1423.12805     742.3145     517.4417
   1423.11279     741.7587     516.8251   1423.11279     741.7587     516.8251
   1423.09753     740.8968     515.6758   1423.09753     740.8968     515.6758
   1423.08228     740.6679     515.4711   1423.08228     740.6679     515.4711
   1423.06702     740.0008     514.5477   1423.06702     740.0008     514.5477
   1423.05176     739.1619     513.7065   1423.05176     739.1619     513.7065
   1423.03650     739.2010     512.9147   1423.03650     739.2010     512.9147
   1423.02124     738.7962     512.0008   1423.02124     738.7962     512.0008
   1423.00598     737.1345     510.8780   1423.00598     737.1345     510.8780
   1422.99072     737.0851     511.1522   1422.99072     737.0851     511.1522
   1422.97546     737.4324     508.7408   1422.97546     737.4324     508.7408
   1422.96021     736.8730     508.9127   1422.96021     736.8730     508.9127
   1422.94495     736.5789     507.8706   1422.94495     736.5789     507.8706
   1422.92969     736.6367     507.0470   1422.92969     736.6367     507.0470
   1422.91443     735.4310     506.3459   1422.91443     735.4310     506.3459
   1422.89917     735.1339     505.8308   1422.89917     735.1339     505.8308
   1422.88391     735.6414     504.2670   1422.88391     735.6414     504.2670
   1422.86865     734.1508     504.5156   1422.86865     734.1508     504.5156
   1422.85339     734.7281     502.7989   1422.85339     734.7281     502.7989
   1422.83813     732.9255     501.9035   1422.83813     732.9255     501.9035
   1422.82288     733.7842     500.6629   1422.82288     733.7842     500.6629
   1422.80762     733.4576     500.8265   1422.80762     733.4576     500.8265
   1422.79236     733.4850     500.2415   1422.79236     733.4850     500.2415
   1422.77710     732.9421     498.6203   1422.77710     732.9421     498.6203
   1422.76184     732.0978     498.6275   1422.76184     732.0978     498.6275
   1422.74658     732.0856     497.2200   1422.74658     732.0856     497.2200
   1422.73132     730.6997     496.4166   1422.73132     730.6997     496.4166
   1422.71606     731.3055     495.6774   1422.71606     731.3055     495.6774
   1422.70081     730.2194     494.1411   1422.70081     730.2194     494.1411
   1422.68555     729.9516     493.8967   1422.68555     729.9516     493.8967
   1422.67029     730.2350     491.9869   1422.67029     730.2350     491.9869
   1422.65503     729.7333     491.7114   1422.65503     729.7333     491.7114
   1422.63977     729.8496     490.9184   1422.63977     729.8496     490.9184
   1422.62451     728.8184     490.1466   1422.62451     728.8184     490.1466
   1422.60925     728.8946     488.6382   1422.60925     728.8946     488.6382
   1422.59399     730.0518     487.7843   1422.59399     730.0518     487.7843
   1422.57874     729.3319     487.0129   1422.57874     729.3319     487.0129
   1422.56348     729.0845     486.3456   1422.56348     729.0845     486.3456
   1422.54822     727.6822     485.5016   1422.54822     727.6822     485.5016
   1422.53296     727.4485     484.1662   1422.53296     727.4485     484.1662
   1422.51770     727.5460     483.1574   1422.51770     727.5460     483.1574
   1422.50244     727.4772     482.5824   1422.50244     727.4772     482.5824
   1422.48718     726.6814     481.2812   1422.48718     726.6814     481.2812
   1422.47192     726.3877     481.0062   1422.47192     726.3877     481.0062
   1422.45667     727.0887     479.7170   1422.45667     727.0887     479.7170
   1422.44141     727.1896     478.8413   1422.44141     727.1896     478.8413
   1422.42615     727.0034     476.8911   1422.42615     727.0034     476.8911
   1422.41089     727.2485     477.1174   1422.41089     727.2485     477.1174
   1422.39563     726.0646     476.3228   1422.39563     726.0646     476.3228
   1422.38037     726.0530     475.1022   1422.38037     726.0530     475.1022
   1422.36511     726.7236     474.7011   1422.36511     726.7236     474.7011
   1422.34985     725.7131     472.4482   1422.34985     725.7131     472.4482
   1422.33459     726.2472     472.2442   1422.33459     726.2472     472.2442
   1422.31934     725.3226     471.1418   1422.31934     725.3226     471.1418
   1422.30408     724.9706     470.0572   1422.30408     724.9706     470.0572
   1422.28882     725.2150     469.2734   1422.28882     725.2150     469.2734
   1422.27356     725.0290     467.7083   1422.27356     725.0290     467.7083
   1422.25830     725.7480     466.6423   1422.25830     725.7480     466.6423
   1422.24304     726.5648     465.7272   1422.24304     726.5648     465.7272
   1422.22778     724.5986     464.9149   1422.22778     724.5986     464.9149
   1422.21252     724.4003     464.1655   1422.21252     724.4003     464.1655
   1422.19727     725.2167     463.1245   1422.19727     725.2167     463.1245
   1422.18201     725.0331     461.2505   1422.18201     725.0331     461.2505
   1422.16675     724.4247     460.3027   1422.16675     724.4247     460.3027
   1422.15149     724.5786     459.8544   1422.15149     724.5786     459.8544
   1422.13623     725.7253     459.3229   1422.13623     725.7253     459.3229
   1422.12097     723.2122     457.3629   1422.12097     723.2122     457.3629
   1422.10571     723.1400     456.6768   1422.10571     723.1400     456.6768
   1422.09045     725.1957     455.4469   1422.09045     725.1957     455.4469
   1422.07520     724.7421     454.8086   1422.07520     724.7421     454.8086
   1422.05994     724.2886     454.4304   1422.05994     724.2886     454.4304
   1422.04468     723.5704     453.1359   1422.04468     723.5704     453.1359
   1422.02942     724.1055     451.9456   1422.02942     724.1055     451.9456
   1422.01416     723.5726     450.6872   1422.01416     723.5726     450.6872
   1421.99890     725.1492     451.2328   1421.99890     725.1492     451.2328
   1421.98364     723.2748     448.6266   1421.98364     723.2748     448.6266
   1421.96838     721.2511     447.6915   1421.96838     721.2511     447.6915
   1421.95312     723.5256     446.2413   1421.95312     723.5256     446.2413
   1421.93787     723.1485     445.9026   1421.93787     723.1485     445.9026
   1421.92261     723.9183     444.2559   1421.92261     723.9183     444.2559
   1421.90735     724.0773     443.3676   1421.90735     724.0773     443.3676
   1421.89209     723.1617     442.0313   1421.89209     723.1617     442.0313
   1421.87683     722.8140     441.6102   1421.87683     722.8140     441.6102
   1421.86157     723.4991     440.8801   1421.86157     723.4991     440.8801
   1421.84631     724.0425     439.9512   1421.84631     724.0425     439.9512
   1421.83105     723.4890     438.5711   1421.83105     723.4890     438.5711
   1421.81580     723.0381     437.2727   1421.81580     723.0381     437.2727
   1421.80054     722.4196     436.5664   1421.80054     722.4196     436.5664
   1421.78528     724.2883     435.9392   1421.78528     724.2883     435.9392
   1421.77002     721.9761     435.4396   1421.77002     721.9761     435.4396
   1421.75476     722.6760     434.2214   1421.75476     722.6760     434.2214
   1421.73950     723.3249     432.6313   1421.73950     723.3249     432.6313
   1421.72424     722.2521     431.8607   1421.72424     722.2521     431.8607
   1421.70898     723.0411     430.8720   1421.70898     723.0411     430.8720
   1421.69373     722.9185     429.7487   1421.69373     722.9185     429.7487
   1421.67847     723.2055     429.3313   1421.67847     723.2055     429.3313
   1421.66321     722.1584     428.0686   1421.66321     722.1584     428.0686
   1421.64795     721.8019     426.1753   1421.64795     721.8019     426.1753
   1421.63269     722.3777     425.2792   1421.63269     722.3777     425.2792
   1421.61743     722.9597     424.0472   1421.61743     722.9597     424.0472
   1421.60217     722.9251     423.2226   1421.60217     722.9251     423.2226
   1421.58691     721.8927     422.8805   1421.58691     721.8927     422.8805
   1421.57166     722.5551     421.4717   1421.57166     722.5551     421.4717
   1421.55640     721.1236     420.8149   1421.55640     721.1236     420.8149
   1421.54114     722.0358     419.5379   1421.54114     722.0358     419.5379
   1421.52588     721.9125     418.9060   1421.52588     721.9125     418.9060
   1421.51062     722.9402     417.5763   1421.51062     722.9402     417.5763
   1421.49536     721.0642     415.6768   1421.49536     721.0642     415.6768
   1421.48010     721.6953     415.6553   1421.48010     721.6953     415.6553
   1421.46484     721.6494     414.9377   1421.46484     721.6494     414.9377
   1421.44958     721.1829     414.0872   1421.44958     721.1829     414.0872
   1421.43433     722.2327     412.2986   1421.43433     722.2327     412.2986
   1421.41907     721.5733     411.7407   1421.41907     721.5733     411.7407
   1421.40381     720.3295     410.5143   1421.40381     720.3295     410.5143
   1421.38855     721.4874     409.2077   1421.38855     721.4874     409.2077
   1421.37329     720.0117     407.8852   1421.37329     720.0117     407.8852
   1421.35803     721.6132     407.5587   1421.35803     721.6132     407.5587
   1421.34277     720.4673     406.4456   1421.34277     720.4673     406.4456
   1421.32751     720.8383     405.6191   1421.32751     720.8383     405.6191
   1421.31226     721.2114     404.8806   1421.31226     721.2114     404.8806
   1421.29700     720.6201     403.0328   1421.29700     720.6201     403.0328
   1421.28174     719.4836     402.7951   1421.28174     719.4836     402.7951
   1421.26648     719.5814     401.2502   1421.26648     719.5814     401.2502
   1421.25122     720.1533     400.6307   1421.25122     720.1533     400.6307
   1421.23596     720.9341     400.1963   1421.23596     720.9341     400.1963
   1421.22070     719.3853     398.5267   1421.22070     719.3853     398.5267
   1421.20544     720.2110     397.7738   1421.20544     720.2110     397.7738
   1421.19019     719.5878     396.0704   1421.19019     719.5878     396.0704
   1421.17493     719.7980     396.3135   1421.17493     719.7980     396.3135
   1421.15967     719.4745     394.6470   1421.15967     719.4745     394.6470
   1421.14441     719.7850     394.2719   1421.14441     719.7850     394.2719
   1421.12915     719.0942     392.6616   1421.12915     719.0942     392.6616
   1421.11389     719.1164     391.3569   1421.11389     719.1164     391.3569
   1421.09863     718.8601     390.9707   1421.09863     718.8601     390.9707
   1421.08337     718.5234     390.7791   1421.08337     718.5234     390.7791
   1421.06812     719.2177     389.5848   1421.06812     719.2177     389.5848
   1421.05286     719.2200     388.0483   1421.05286     719.2200     388.0483
   1421.03760     718.8121     388.3197   1421.03760     718.8121     388.3197
   1421.02234     718.5383     386.6668   1421.02234     718.5383     386.6668
   1421.00708     718.7773     386.3844   1421.00708     718.7773     386.3844
   1420.99182     718.4050     385.1341   1420.99182     718.4050     385.1341
   1420.97656     719.4122     383.5125   1420.97656     719.4122     383.5125
   1420.96130     718.6686     383.4978   1420.96130     718.6686     383.4978
   1420.94604     718.9215     382.0854   1420.94604     718.9215     382.0854
   1420.93079     718.6052     381.8675   1420.93079     718.6052     381.8675
   1420.91553     720.1257     381.0892   1420.91553     720.1257     381.0892
   1420.90027     718.5384     379.6017   1420.90027     718.5384     379.6017
   1420.88501     717.2462     379.1502   1420.88501     717.2462     379.1502
   1420.86975     717.9637     378.6896   1420.86975     717.9637     378.6896
   1420.85449     719.3052     377.6712   1420.85449     719.3052     377.6712
   1420.83923     717.9251     376.4869   1420.83923     717.9251     376.4869
   1420.82397     718.8934     375.9778   1420.82397     718.8934     375.9778
   1420.80872     717.8378     375.1875   1420.80872     717.8378     375.1875
   1420.79346     718.8624     374.0189   1420.79346     718.8624     374.0189
   1420.77820     718.9782     373.5703   1420.77820     718.9782     373.5703
   1420.76294     719.9249     372.7282   1420.76294     719.9249     372.7282
   1420.74768     718.5499     373.0300   1420.74768     718.5499     373.0300
   1420.73242     718.4576     371.8559   1420.73242     718.4576     371.8559
   1420.71716     718.7851     370.8228   1420.71716     718.7851     370.8228
   1420.70190     719.8467     370.7348   1420.70190     719.8467     370.7348
   1420.68665     719.6258     369.1465   1420.68665     719.6258     369.1465
   1420.67139     719.2754     369.3961   1420.67139     719.2754     369.3961
   1420.65613     720.3028     368.8528   1420.65613     720.3028     368.8528
   1420.64087     720.2386     368.1037   1420.64087     720.2386     368.1037
   1420.62561     720.4641     367.1472   1420.62561     720.4641     367.1472
   1420.61035     721.2665     366.7385   1420.61035     721.2665     366.7385
   1420.59509     720.8254     365.9791   1420.59509     720.8254     365.9791
   1420.57983     722.3912     366.6133   1420.57983     722.3912     366.6133
   1420.56458     724.7529     366.1960   1420.56458     724.7529     366.1960
   1420.54932     726.4037     366.6833   1420.54932     726.4037     366.6833
   1420.53406     729.7821     366.5225   1420.53406     729.7821     366.5225
   1420.51880     730.5067     367.3299   1420.51880     730.5067     367.3299
   1420.50354     733.2849     368.3386   1420.50354     733.2849     368.3386
   1420.48828     736.1013     367.8968   1420.48828     736.1013     367.8968
   1420.47302     736.1716     368.4091   1420.47302     736.1716     368.4091
   1420.45776     741.0549     369.7384   1420.45776     741.0549     369.7384
   1420.44250     743.2673     370.3015   1420.44250     743.2673     370.3015
   1420.42725     747.3131     372.0216   1420.42725     747.3131     372.0216
   1420.41199     754.3561     374.5011   1420.41199     754.3561     374.5011
   1420.39673     763.8242     377.7649   1420.39673     763.8242     377.7649
   1420.38147     776.6522     383.8619   1420.38147     776.6522     383.8619
   1420.36621     802.2969     393.9186   1420.36621     802.2969     393.9186
   1420.35095     841.0423     412.4298   1420.35095     841.0423     412.4298
   1420.33569     919.7160     448.3533   1420.33569     919.7160     448.3533
   1420.32043    1125.1111     546.4285   1420.32043    1125.1111     546.4285
   1420.30518    1705.3513     822.4045   1420.30518    1705.3513     822.4045
   1420.28992    2259.7012    1083.1792   1420.28992    2259.7012    1083.1792
   1420.27466    2541.7727    1218.3682   1420.27466    2541.7727    1218.3682
   1420.25940    2729.8506    1304.4885   1420.25940    2729.8506    1304.4885
   1420.24414    2564.5112    1223.7097   1420.24414    2564.5112    1223.7097
   1420.22888    2529.1130    1209.7721   1420.22888    2529.1130    1209.7721
   1420.21362    2512.0015    1195.2460   1420.21362    2512.0015    1195.2460
   1420.19836    2202.6057    1049.9027   1420.19836    2202.6057    1049.9027
   1420.18311    1551.5201     739.9282   1420.18311    1551.5201     739.9282
   1420.16785    1098.8584     525.9677   1420.16785    1098.8584     525.9677
   1420.15259     907.8333     435.8800   1420.15259     907.8333     435.8800
   1420.13733     822.2108     395.2790   1420.13733     822.2108     395.2790
   1420.12207     777.7259     374.0335   1420.12207     777.7259     374.0335
   1420.10681     753.7876     362.6394   1420.10681     753.7876     362.6394
   1420.09155     739.9871     356.0508   1420.09155     739.9871     356.0508
   1420.07629     731.7661     351.6830   1420.07629     731.7661     351.6830
   1420.06104     728.1226     348.2585   1420.06104     728.1226     348.2585
   1420.04578     723.0422     346.2325   1420.04578     723.0422     346.2325
   1420.03052     720.5108     345.0137   1420.03052     720.5108     345.0137
   1420.01526     718.9277     344.0450   1420.01526     718.9277     344.0450
   1420.00000     719.5958     343.2946   1420.00000     719.5958     343.2946
   1419.98474     720.2638     342.5443   1419.98474     720.2638     342.5443
   1419.96948     716.1359     340.6505   1419.96948     716.1359     340.6505
   1419.95422     714.4607     339.9347   1419.95422     714.4607     339.9347
   1419.93896     713.9048     339.2440   1419.93896     713.9048     339.2440
   1419.92371     714.4713     338.9636   1419.92371     714.4713     338.9636
   1419.90845     714.6674     338.2991   1419.90845     714.6674     338.2991
   1419.89319     713.9727     337.0094   1419.89319     713.9727     337.0094
   1419.87793     713.5410     337.1018   1419.87793     713.5410     337.1018
   1419.86267     713.6700     336.8906   1419.86267     713.6700     336.8906
   1419.84741     713.4405     336.5558   1419.84741     713.4405     336.5558
   1419.83215     713.7457     335.5946   1419.83215     713.7457     335.5946
   1419.81689     713.3835     335.6017   1419.81689     713.3835     335.6017
   1419.80164     712.3026     334.3360   1419.80164     712.3026     334.3360
   1419.78638     713.7486     334.0523   1419.78638     713.7486     334.0523
   1419.77112     712.7119     334.5336   1419.77112     712.7119     334.5336
   1419.75586     713.9383     333.8941   1419.75586     713.9383     333.8941
   1419.74060     713.4464     333.1658   1419.74060     713.4464     333.1658
   1419.72534     713.3531     333.1687   1419.72534     713.3531     333.1687
   1419.71008     713.3052     332.9196   1419.71008     713.3052     332.9196
   1419.69482     714.7452     332.2384   1419.69482     714.7452     332.2384
   1419.67957     715.1051     332.1981   1419.67957     715.1051     332.1981
   1419.66431     714.4058     331.8481   1419.66431     714.4058     331.8481
   1419.64905     714.0977     331.8266   1419.64905     714.0977     331.8266
   1419.63379     714.6809     331.6116   1419.63379     714.6809     331.6116
   1419.61853     713.9834     331.9053   1419.61853     713.9834     331.9053
   1419.60327     714.4645     331.3928   1419.60327     714.4645     331.3928
   1419.58801     714.8046     330.8618   1419.58801     714.8046     330.8618
   1419.57275     715.2905     330.8446   1419.57275     715.2905     330.8446
   1419.55750     714.6199     330.5209   1419.55750     714.6199     330.5209
   1419.54224     716.2880     330.6493   1419.54224     716.2880     330.6493
   1419.52698     716.4188     330.0032   1419.52698     716.4188     330.0032
   1419.51172     716.3218     330.3878   1419.51172     716.3218     330.3878
   1419.49646     716.3667     330.5332   1419.49646     716.3667     330.5332
   1419.48120     717.1629     329.9243   1419.48120     717.1629     329.9243
   1419.46594     717.1047     329.9890   1419.46594     717.1047     329.9890
   1419.45068     716.6274     330.2719   1419.45068     716.6274     330.2719
   1419.43542     718.4663     330.1978   1419.43542     718.4663     330.1978
   1419.42017     718.3262     329.9411   1419.42017     718.3262     329.9411
   1419.40491     718.8710     329.5918   1419.40491     718.8710     329.5918
   1419.38965     717.6566     329.6646   1419.38965     717.6566     329.6646
   1419.37439     718.6132     329.5685   1419.37439     718.6132     329.5685
   1419.35913     718.2479     329.3328   1419.35913     718.2479     329.3328
   1419.34387     718.8759     329.1599   1419.34387     718.8759     329.1599
   1419.32861     719.0494     329.9679   1419.32861     719.0494     329.9679
   1419.31335     719.4343     329.4014   1419.31335     719.4343     329.4014
   1419.29810     720.4671     329.6325   1419.29810     720.4671     329.6325
   1419.28284     720.6151     329.4553   1419.28284     720.6151     329.4553
   1419.26758     721.9539     330.0630   1419.26758     721.9539     330.0630
   1419.25232     721.9236     329.2582   1419.25232     721.9236     329.2582
   1419.23706     721.5256     329.6975   1419.23706     721.5256     329.6975
   1419.22180     723.9812     330.1415   1419.22180     723.9812     330.1415
   1419.20654     723.2304     329.3192   1419.20654     723.2304     329.3192
   1419.19128     722.4037     329.8380   1419.19128     722.4037     329.8380
   1419.17603     722.7111     330.4264   1419.17603     722.7111     330.4264
   1419.16077     724.1995     330.3537   1419.16077     724.1995     330.3537
   1419.14551     723.6875     329.7521   1419.14551     723.6875     329.7521
   1419.13025     724.2633     330.4376   1419.13025     724.2633     330.4376
   1419.11499     724.2029     330.6035   1419.11499     724.2029     330.6035
   1419.09973     725.8645     330.5640   1419.09973     725.8645     330.5640
   1419.08447     725.8446     330.5103   1419.08447     725.8446     330.5103
   1419.06921     726.2421     330.7418   1419.06921     726.2421     330.7418
   1419.05396     726.1005     331.6035   1419.05396     726.1005     331.6035
   1419.03870     727.6183     331.2088   1419.03870     727.6183     331.2088
   1419.02344     728.2596     330.9464   1419.02344     728.2596     330.9464
   1419.00818     728.2520     331.9387   1419.00818     728.2520     331.9387
   1418.99292     727.7251     331.7773   1418.99292     727.7251     331.7773
   1418.97766     729.6883     331.9343   1418.97766     729.6883     331.9343
   1418.96240     729.6205     332.0053   1418.96240     729.6205     332.0053
   1418.94714     730.7643     332.2836   1418.94714     730.7643     332.2836
   1418.93188     729.3091     332.9678   1418.93188     729.3091     332.9678
   1418.91663     730.4538     332.7270   1418.91663     730.4538     332.7270
   1418.90137     730.9976     333.3718   1418.90137     730.9976     333.3718
   1418.88611     731.3519     334.1202   1418.88611     731.3519     334.1202
   1418.87085     731.8510     334.0246   1418.87085     731.8510     334.0246
   1418.85559     732.7069     334.2467   1418.85559     732.7069     334.2467
   1418.84033     734.1121     334.9060   1418.84033     734.1121     334.9060
   1418.82507     733.6970     334.8279   1418.82507     733.6970     334.8279
   1418.80981     734.9988     335.1847   1418.80981     734.9988     335.1847
   1418.79456     735.0046     336.0516   1418.79456     735.0046     336.0516
   1418.77930     735.6600     335.6875   1418.77930     735.6600     335.6875
   1418.76404     734.7608     336.4189   1418.76404     734.7608     336.4189
   1418.74878     736.7627     337.0927   1418.74878     736.7627     337.0927
   1418.73352     737.4631     337.0232   1418.73352     737.4631     337.0232
   1418.71826     738.0527     337.8416   1418.71826     738.0527     337.8416
   1418.70300     737.9812     337.2357   1418.70300     737.9812     337.2357
   1418.68774     739.5229     338.8813   1418.68774     739.5229     338.8813
   1418.67249     737.9982     339.0868   1418.67249     737.9982     339.0868
   1418.65723     740.7842     339.3300   1418.65723     740.7842     339.3300
   1418.64197     741.4255     339.6616   1418.64197     741.4255     339.6616
   1418.62671     742.0779     340.5332   1418.62671     742.0779     340.5332
   1418.61145     742.4949     341.0252   1418.61145     742.4949     341.0252
   1418.59619     743.6259     341.3024   1418.59619     743.6259     341.3024
   1418.58093     743.2094     341.2893   1418.58093     743.2094     341.2893
   1418.56567     745.0209     341.9902   1418.56567     745.0209     341.9902
   1418.55042     747.2715     342.9440   1418.55042     747.2715     342.9440
   1418.53516     745.1624     343.2197   1418.53516     745.1624     343.2197
   1418.51990     745.9185     343.6467   1418.51990     745.9185     343.6467
   1418.50464     747.0779     344.9704   1418.50464     747.0779     344.9704
   1418.48938     747.5749     345.1383   1418.48938     747.5749     345.1383
   1418.47412     749.2876     346.0103   1418.47412     749.2876     346.0103
   1418.45886     750.0334     346.1231   1418.45886     750.0334     346.1231
   1418.44360     749.8472     346.6963   1418.44360     749.8472     346.6963
   1418.42834     751.0297     347.5017   1418.42834     751.0297     347.5017
   1418.41309     750.3208     348.0240   1418.41309     750.3208     348.0240
   1418.39783     752.1154     348.9156   1418.39783     752.1154     348.9156
   1418.38257     752.3254     349.5658   1418.38257     752.3254     349.5658
   1418.36731     754.7426     350.0006   1418.36731     754.7426     350.0006
   1418.35205     754.0770     351.3504   1418.35205     754.0770     351.3504
   1418.33679     755.1570     351.8134   1418.33679     755.1570     351.8134
   1418.32153     756.0104     352.0827   1418.32153     756.0104     352.0827
   1418.30627     756.3463     352.9096   1418.30627     756.3463     352.9096
   1418.29102     756.4523     353.7642   1418.29102     756.4523     353.7642
   1418.27576     757.8008     354.2322   1418.27576     757.8008     354.2322
   1418.26050     758.5655     354.9006   1418.26050     758.5655     354.9006
   1418.24524     759.9356     355.5306   1418.24524     759.9356     355.5306
   1418.22998     760.2624     356.5002   1418.22998     760.2624     356.5002
   1418.21472     760.6419     357.6976   1418.21472     760.6419     357.6976
   1418.19946     762.6776     358.1727   1418.19946     762.6776     358.1727
   1418.18420     762.2780     358.6978   1418.18420     762.2780     358.6978
   1418.16895     763.9785     359.6057   1418.16895     763.9785     359.6057
   1418.15369     763.8748     360.6679   1418.15369     763.8748     360.6679
   1418.13843     765.5803     362.1977   1418.13843     765.5803     362.1977
   1418.12317     766.3399     361.9267   1418.12317     766.3399     361.9267
   1418.10791     767.2137     363.0818   1418.10791     767.2137     363.0818
   1418.09265     767.1326     364.2051   1418.09265     767.1326     364.2051
   1418.07739     767.5634     364.9567   1418.07739     767.5634     364.9567
   1418.06213     769.5129     365.3661   1418.06213     769.5129     365.3661
   1418.04688     770.6191     366.4970   1418.04688     770.6191     366.4970
   1418.03162     770.7401     367.0507   1418.03162     770.7401     367.0507
   1418.01636     772.1859     368.3764   1418.01636     772.1859     368.3764
   1418.00110     772.9127     369.0060   1418.00110     772.9127     369.0060
   1417.98584     773.4994     370.1433   1417.98584     773.4994     370.1433
   1417.97058     773.8703     371.2803   1417.97058     773.8703     371.2803
   1417.95532     776.3172     372.0078   1417.95532     776.3172     372.0078
   1417.94006     776.7184     373.1655   1417.94006     776.7184     373.1655
   1417.92480     777.0750     373.9078   1417.92480     777.0750     373.9078
   1417.90955     777.3029     374.6567   1417.90955     777.3029     374.6567
   1417.89429     779.1670     375.7766   1417.89429     779.1670     375.7766
   1417.87903     780.0101     376.8366   1417.87903     780.0101     376.8366
   1417.86377     781.1035     378.3863   1417.86377     781.1035     378.3863
   1417.84851     782.1514     379.3162   1417.84851     782.1514     379.3162
   1417.83325     783.6491     379.8048   1417.83325     783.6491     379.8048
   1417.81799     785.0194     381.4965   1417.81799     785.0194     381.4965
   1417.80273     785.5972     382.2398   1417.80273     785.5972     382.2398
   1417.78748     784.8502     383.2081   1417.78748     784.8502     383.2081
   1417.77222     786.9634     384.2841   1417.77222     786.9634     384.2841
   1417.75696     786.8267     385.4999   1417.75696     786.8267     385.4999
   1417.74170     788.5872     386.2463   1417.74170     788.5872     386.2463
   1417.72644     790.0969     387.1472   1417.72644     790.0969     387.1472
   1417.71118     790.7156     388.5568   1417.71118     790.7156     388.5568
   1417.69592     792.3887     389.7291   1417.69592     792.3887     389.7291
   1417.68066     791.8327     391.2890   1417.68066     791.8327     391.2890
   1417.66541     794.4329     392.1493   1417.66541     794.4329     392.1493
   1417.65015     794.0204     393.1254   1417.65015     794.0204     393.1254
   1417.63489     794.8815     394.5420   1417.63489     794.8815     394.5420
   1417.61963     795.1353     396.0009   1417.61963     795.1353     396.0009
   1417.60437     796.3734     396.1849   1417.60437     796.3734     396.1849
   1417.58911     798.6860     399.0873   1417.58911     798.6860     399.0873
   1417.57385     799.0817     399.0100   1417.57385     799.0817     399.0100
   1417.55859     800.7350     400.3511   1417.55859     800.7350     400.3511
   1417.54333     800.9335     401.5312   1417.54333     800.9335     401.5312
   1417.52808     801.8998     402.4421   1417.52808     801.8998     402.4421
   1417.51282     803.6904     404.2885   1417.51282     803.6904     404.2885
   1417.49756     803.6263     405.6722   1417.49756     803.6263     405.6722
   1417.48230     804.6234     406.1772   1417.48230     804.6234     406.1772
   1417.46704     806.4548     407.9869   1417.46704     806.4548     407.9869
   1417.45178     807.3953     408.7461   1417.45178     807.3953     408.7461
   1417.43652     808.3148     410.5818   1417.43652     808.3148     410.5818
   1417.42126     807.7363     411.3856   1417.42126     807.7363     411.3856
   1417.40601     810.1931     412.7148   1417.40601     810.1931     412.7148
   1417.39075     810.6572     414.1199   1417.39075     810.6572     414.1199
   1417.37549     812.3703     414.6053   1417.37549     812.3703     414.6053
   1417.36023     812.6590     417.0321   1417.36023     812.6590     417.0321
   1417.34497     814.1151     417.7099   1417.34497     814.1151     417.7099
   1417.32971     814.8365     418.5150   1417.32971     814.8365     418.5150
   1417.31445     815.9237     420.4807   1417.31445     815.9237     420.4807
   1417.29919     816.3672     421.1656   1417.29919     816.3672     421.1656
   1417.28394     818.4354     424.1061   1417.28394     818.4354     424.1061
   1417.26868     818.4921     424.2279   1417.26868     818.4921     424.2279
   1417.25342     819.3892     425.6536   1417.25342     819.3892     425.6536
   1417.23816     820.5352     426.5082   1417.23816     820.5352     426.5082
   1417.22290     821.1159     428.8861   1417.22290     821.1159     428.8861
   1417.20764     822.5785     429.4093   1417.20764     822.5785     429.4093
   1417.19238     822.6811     431.1561   1417.19238     822.6811     431.1561
   1417.17712     823.6747     432.7856   1417.17712     823.6747     432.7856
   1417.16187     825.1201     433.4210   1417.16187     825.1201     433.4210
   1417.14661     824.5375     435.2003   1417.14661     824.5375     435.2003
   1417.13135     825.5635     436.1651   1417.13135     825.5635     436.1651
   1417.11609     827.6172     437.6622   1417.11609     827.6172     437.6622
   1417.10083     827.7219     438.0737   1417.10083     827.7219     438.0737
   1417.08557     828.9107     439.4303   1417.08557     828.9107     439.4303
   1417.07031     829.7988     440.8660   1417.07031     829.7988     440.8660
   1417.05505     831.2234     442.3647   1417.05505     831.2234     442.3647
   1417.03979     831.1500     443.3081   1417.03979     831.1500     443.3081
   1417.02454     832.6356     445.2797   1417.02454     832.6356     445.2797
   1417.00928     834.2656     446.0126   1417.00928     834.2656     446.0126
   1416.99402     833.5522     447.1256   1416.99402     833.5522     447.1256
   1416.97876     834.7745     448.6808   1416.97876     834.7745     448.6808
   1416.96350     835.2006     449.7061   1416.96350     835.2006     449.7061
   1416.94824     837.1226     451.2440   1416.94824     837.1226     451.2440
   1416.93298     836.9878     452.9238   1416.93298     836.9878     452.9238
   1416.91772     837.4915     452.9655   1416.91772     837.4915     452.9655
   1416.90247     838.6176     454.6116   1416.90247     838.6176     454.6116
   1416.88721     838.2651     455.9549   1416.88721     838.2651     455.9549
   1416.87195     839.0211     456.9457   1416.87195     839.0211     456.9457
   1416.85669     841.5931     458.2047   1416.85669     841.5931     458.2047
   1416.84143     840.8081     458.8152   1416.84143     840.8081     458.8152
   1416.82617     842.6451     460.2886   1416.82617     842.6451     460.2886
   1416.81091     842.9225     460.9357   1416.81091     842.9225     460.9357
   1416.79565     844.4924     462.0550   1416.79565     844.4924     462.0550
   1416.78040     843.7291     463.4172   1416.78040     843.7291     463.4172
   1416.76514     844.6537     464.2579   1416.76514     844.6537     464.2579
   1416.74988     845.2210     464.7845   1416.74988     845.2210     464.7845
   1416.73462     845.7817     466.5562   1416.73462     845.7817     466.5562
   1416.71936     844.8930     467.4360   1416.71936     844.8930     467.4360
   1416.70410     846.5432     467.9150   1416.70410     846.5432     467.9150
   1416.68884     846.5532     469.1512   1416.68884     846.5532     469.1512
   1416.67358     847.1614     469.5682   1416.67358     847.1614     469.5682
   1416.65833     847.5222     470.4580   1416.65833     847.5222     470.4580
   1416.64307     849.0667     471.7389   1416.64307     849.0667     471.7389
   1416.62781     849.0753     472.2496   1416.62781     849.0753     472.2496
   1416.61255     849.3036     473.5334   1416.61255     849.3036     473.5334
   1416.59729     850.5303     474.4273   1416.59729     850.5303     474.4273
   1416.58203     850.9099     474.8769   1416.58203     850.9099     474.8769
   1416.56677     849.3100     475.8304   1416.56677     849.3100     475.8304
   1416.55151     849.0143     475.6067   1416.55151     849.0143     475.6067
   1416.53625     849.0660     476.6967   1416.53625     849.0660     476.6967
   1416.52100     849.7534     477.5179   1416.52100     849.7534     477.5179
   1416.50574     850.5824     478.5584   1416.50574     850.5824     478.5584
   1416.49048     852.0864     479.0479   1416.49048     852.0864     479.0479
   1416.47522     852.6649     479.1589   1416.47522     852.6649     479.1589
   1416.45996     850.7671     480.3731   1416.45996     850.7671     480.3731
   1416.44470     850.4451     480.5908   1416.44470     850.4451     480.5908
   1416.42944     852.4911     481.4419   1416.42944     852.4911     481.4419
   1416.41418     852.5892     481.9542   1416.41418     852.5892     481.9542
   1416.39893     851.4272     482.5453   1416.39893     851.4272     482.5453
   1416.38367     852.1102     482.6269   1416.38367     852.1102     482.6269
   1416.36841     851.0851     482.6696   1416.36841     851.0851     482.6696
   1416.35315     850.4235     482.8244   1416.35315     850.4235     482.8244
   1416.33789     851.4742     484.0139   1416.33789     851.4742     484.0139
   1416.32263     851.3141     483.7518   1416.32263     851.3141     483.7518
   1416.30737     850.2638     484.6905   1416.30737     850.2638     484.6905
   1416.29211     850.4916     485.0969   1416.29211     850.4916     485.0969
   1416.27686     850.8892     483.9074   1416.27686     850.8892     483.9074
   1416.26160     851.1977     484.6979   1416.26160     851.1977     484.6979
   1416.24634     850.7084     485.3419   1416.24634     850.7084     485.3419
   1416.23108     850.1728     485.7177   1416.23108     850.1728     485.7177
   1416.21582     849.5294     486.2358   1416.21582     849.5294     486.2358
   1416.20056     850.5450     486.7427   1416.20056     850.5450     486.7427
   1416.18530     849.4406     485.5028   1416.18530     849.4406     485.5028
   1416.17004     849.3364     486.6239   1416.17004     849.3364     486.6239
   1416.15479     849.5180     486.9495   1416.15479     849.5180     486.9495
   1416.13953     849.0782     486.7762   1416.13953     849.0782     486.7762
   1416.12427     848.1246     486.9813   1416.12427     848.1246     486.9813
   1416.10901     847.8133     486.6668   1416.10901     847.8133     486.6668
   1416.09375     848.1422     487.0285   1416.09375     848.1422     487.0285
   1416.07849     846.8333     487.2586   1416.07849     846.8333     487.2586
   1416.06323     847.2836     487.7740   1416.06323     847.2836     487.7740
   1416.04797     846.0490     487.7766   1416.04797     846.0490     487.7766
   1416.03271     845.6519     487.3839   1416.03271     845.6519     487.3839
   1416.01746     844.6733     487.6630   1416.01746     844.6733     487.6630
   1416.00220     844.3137     487.7097   1416.00220     844.3137     487.7097
   1415.98694     844.2095     487.7731   1415.98694     844.2095     487.7731
   1415.97168     845.4429     487.5870   1415.97168     845.4429     487.5870
   1415.95642     842.7225     487.1035   1415.95642     842.7225     487.1035
   1415.94116     842.5436     487.6872   1415.94116     842.5436     487.6872
   1415.92590     841.4487     487.6591   1415.92590     841.4487     487.6591
   1415.91064     841.3624     487.2486   1415.91064     841.3624     487.2486
   1415.89539     841.8953     486.6174   1415.89539     841.8953     486.6174
   1415.88013     840.3779     487.2884   1415.88013     840.3779     487.2884
   1415.86487     839.9531     487.3462   1415.86487     839.9531     487.3462
   1415.84961     838.7260     487.3033   1415.84961     838.7260     487.3033
   1415.83435     839.7195     487.0543   1415.83435     839.7195     487.0543
   1415.81909     837.5766     486.7660   1415.81909     837.5766     486.7660
   1415.80383     836.3594     486.5102   1415.80383     836.3594     486.5102
   1415.78857     836.2380     486.3072   1415.78857     836.2380     486.3072
   1415.77332     834.1744     486.7228   1415.77332     834.1744     486.7228
   1415.75806     833.6851     485.8471   1415.75806     833.6851     485.8471
   1415.74280     833.2715     485.9294   1415.74280     833.2715     485.9294
   1415.72754     832.8069     485.6175   1415.72754     832.8069     485.6175
   1415.71228     831.6659     485.4590   1415.71228     831.6659     485.4590
   1415.69702     831.2469     484.5857   1415.69702     831.2469     484.5857
   1415.68176     830.1883     484.6801   1415.68176     830.1883     484.6801
   1415.66650     830.3081     484.6902   1415.66650     830.3081     484.6902
   1415.65125     830.0748     483.8909   1415.65125     830.0748     483.8909
   1415.63599     827.1996     483.8729   1415.63599     827.1996     483.8729
   1415.62073     826.3669     482.8904   1415.62073     826.3669     482.8904
   1415.60547     825.4050     483.8151   1415.60547     825.4050     483.8151
   1415.59021     825.0935     483.0699   1415.59021     825.0935     483.0699
   1415.57495     823.6279     482.7832   1415.57495     823.6279     482.7832
   1415.55969     823.2213     482.7902   1415.55969     823.2213     482.7902
   1415.54443     820.7912     481.1767   1415.54443     820.7912     481.1767
   1415.52917     821.3171     481.1792   1415.52917     821.3171     481.1792
   1415.51392     820.0298     481.0929   1415.51392     820.0298     481.0929
   1415.49866     819.3135     480.6827   1415.49866     819.3135     480.6827
   1415.48340     818.3176     480.9458   1415.48340     818.3176     480.9458
   1415.46814     817.2222     480.3229   1415.46814     817.2222     480.3229
   1415.45288     815.7607     479.4932   1415.45288     815.7607     479.4932
   1415.43762     814.3528     479.1250   1415.43762     814.3528     479.1250
   1415.42236     813.2700     478.7105   1415.42236     813.2700     478.7105
   1415.40710     811.3571     478.3443   1415.40710     811.3571     478.3443
   1415.39185     811.4665     478.0049   1415.39185     811.4665     478.0049
   1415.37659     810.3527     477.6210   1415.37659     810.3527     477.6210
   1415.36133     808.7760     476.5155   1415.36133     808.7760     476.5155
   1415.34607     807.2441     477.0812   1415.34607     807.2441     477.0812
   1415.33081     806.0453     475.5808   1415.33081     806.0453     475.5808
   1415.31555     804.6871     474.8799   1415.31555     804.6871     474.8799
   1415.30029     803.8089     474.3056   1415.30029     803.8089     474.3056
   1415.28503     803.3383     474.4763   1415.28503     803.3383     474.4763
   1415.26978     801.6755     473.8158   1415.26978     801.6755     473.8158
   1415.25452     799.8007     472.9392   1415.25452     799.8007     472.9392
   1415.23926     798.6797     473.1800   1415.23926     798.6797     473.1800
   1415.22400     798.1237     471.7148   1415.22400     798.1237     471.7148
   1415.20874     796.0714     471.4981   1415.20874     796.0714     471.4981
   1415.19348     795.2715     470.8638   1415.19348     795.2715     470.8638
   1415.17822     793.0695     470.3800   1415.17822     793.0695     470.3800
   1415.16296     789.8725     470.2318   1415.16296     789.8725     470.2318
   1415.14771     790.8973     469.2063   1415.14771     790.8973     469.2063
   1415.13245     787.5735     468.1464   1415.13245     787.5735     468.1464
   1415.11719     787.8338     467.3143   1415.11719     787.8338     467.3143
   1415.10193     786.0552     466.6960   1415.10193     786.0552     466.6960
   1415.08667     784.2916     466.6089   1415.08667     784.2916     466.6089
   1415.07141     782.4291     465.1086   1415.07141     782.4291     465.1086
   1415.05615     779.9250     464.2388   1415.05615     779.9250     464.2388
   1415.04089     777.1301     464.2374   1415.04089     777.1301     464.2374
   1415.02563     777.2851     462.4383   1415.02563     777.2851     462.4383
   1415.01038     776.0984     462.0787   1415.01038     776.0984     462.0787
   1414.99512     773.0762     460.5910   1414.99512     773.0762     460.5910
   1414.97986     772.4196     460.6268   1414.97986     772.4196     460.6268
   1414.96460     770.5366     459.2313   1414.96460     770.5366     459.2313
   1414.94934     770.1121     459.4138   1414.94934     770.1121     459.4138
   1414.93408     766.7965     457.9545   1414.93408     766.7965     457.9545
   1414.91882     766.6771     456.4204   1414.91882     766.6771     456.4204
   1414.90356     762.9966     456.1430   1414.90356     762.9966     456.1430
   1414.88831     761.7553     455.5840   1414.88831     761.7553     455.5840
   1414.87305     759.5410     454.3235   1414.87305     759.5410     454.3235
   1414.85779     757.2662     453.6916   1414.85779     757.2662     453.6916
   1414.84253     756.9363     453.0244   1414.84253     756.9363     453.0244
   1414.82727     754.8898     451.7715   1414.82727     754.8898     451.7715
   1414.81201     752.5151     450.2903   1414.81201     752.5151     450.2903
   1414.79675     750.6003     449.8118   1414.79675     750.6003     449.8118
   1414.78149     749.6710     449.2780   1414.78149     749.6710     449.2780
   1414.76624     745.8160     447.2937   1414.76624     745.8160     447.2937
   1414.75098     744.5425     445.8563   1414.75098     744.5425     445.8563
   1414.73572     742.4796     446.1126   1414.73572     742.4796     446.1126
   1414.72046     740.1263     444.9657   1414.72046     740.1263     444.9657
   1414.70520     738.0680     443.5406   1414.70520     738.0680     443.5406
   1414.68994     735.9385     442.7187   1414.68994     735.9385     442.7187
   1414.67468     733.9903     441.1263   1414.67468     733.9903     441.1263
   1414.65942     730.8788     439.6521   1414.65942     730.8788     439.6521
   1414.64417     729.3232     438.2715   1414.64417     729.3232     438.2715
   1414.62891     727.4090     437.9330   1414.62891     727.4090     437.9330
   1414.61365     724.6816     436.4660   1414.61365     724.6816     436.4660
   1414.59839     723.0057     435.2249   1414.59839     723.0057     435.2249
   1414.58313     720.2280     434.9942   1414.58313     720.2280     434.9942
   1414.56787     716.4106     432.7144   1414.56787     716.4106     432.7144
   1414.55261     716.8091     431.9051   1414.55261     716.8091     431.9051
   1414.53735     713.0462     430.7547   1414.53735     713.0462     430.7547
   1414.52209     711.4003     429.3437   1414.52209     711.4003     429.3437
   1414.50684     708.6434     428.1932   1414.50684     708.6434     428.1932
   1414.49158     706.2217     427.1143   1414.49158     706.2217     427.1143
   1414.47632     703.5247     425.9750   1414.47632     703.5247     425.9750
   1414.46106     701.6841     424.4331   1414.46106     701.6841     424.4331
   1414.44580     699.2631     423.5147   1414.44580     699.2631     423.5147
   1414.43054     696.0865     421.9111   1414.43054     696.0865     421.9111
   1414.41528     693.2797     421.0346   1414.41528     693.2797     421.0346
   1414.40002     690.3351     419.0947   1414.40002     690.3351     419.0947
   1414.38477     688.7652     417.3221   1414.38477     688.7652     417.3221
   1414.36951     686.1724     416.4955   1414.36951     686.1724     416.4955
   1414.35425     683.1062     414.6513   1414.35425     683.1062     414.6513
   1414.33899     681.0193     413.5568   1414.33899     681.0193     413.5568
   1414.32373     677.9334     412.7722   1414.32373     677.9334     412.7722
   1414.30847     675.0370     411.1357   1414.30847     675.0370     411.1357
   1414.29321     672.9050     409.3072   1414.29321     672.9050     409.3072
   1414.27795     670.5149     407.8682   1414.27795     670.5149     407.8682
   1414.26270     667.5007     407.0465   1414.26270     667.5007     407.0465
   1414.24744     663.2529     404.7820   1414.24744     663.2529     404.7820
   1414.23218     661.7437     403.0719   1414.23218     661.7437     403.0719
   1414.21692     658.5950     401.3907   1414.21692     658.5950     401.3907
   1414.20166     656.0056     400.3064   1414.20166     656.0056     400.3064
   1414.18640     653.5358     399.0082   1414.18640     653.5358     399.0082
   1414.17114     650.6915     397.2933   1414.17114     650.6915     397.2933
   1414.15588     648.1406     396.3654   1414.15588     648.1406     396.3654
   1414.14062     644.9849     394.6290   1414.14062     644.9849     394.6290
   1414.12537     641.7850     393.5168   1414.12537     641.7850     393.5168
   1414.11011     639.1478     391.9998   1414.11011     639.1478     391.9998
   1414.09485     636.0381     390.7213   1414.09485     636.0381     390.7213
   1414.07959     634.1597     389.1016   1414.07959     634.1597     389.1016
   1414.06433     630.1544     386.5589   1414.06433     630.1544     386.5589
   1414.04907     626.5675     385.9580   1414.04907     626.5675     385.9580
   1414.03381     624.6659     384.6760   1414.03381     624.6659     384.6760
   1414.01855     620.7683     382.5972   1414.01855     620.7683     382.5972
   1414.00330     617.8892     380.7575   1414.00330     617.8892     380.7575
   1413.98804     614.7131     379.0930   1413.98804     614.7131     379.0930
   1413.97278     612.0035     377.2380   1413.97278     612.0035     377.2380
   1413.95752     609.3776     376.6663   1413.95752     609.3776     376.6663
   1413.94226     605.6843     374.5635   1413.94226     605.6843     374.5635
   1413.92700     603.1035     373.2576   1413.92700     603.1035     373.2576
   1413.91174     600.0135     371.1535   1413.91174     600.0135     371.1535
   1413.89648     597.3337     369.3055   1413.89648     597.3337     369.3055
   1413.88123     594.1125     368.1978   1413.88123     594.1125     368.1978
   1413.86597     590.7602     367.0364   1413.86597     590.7602     367.0364
   1413.85071     587.0090     365.5306   1413.85071     587.0090     365.5306
   1413.83545     584.5229     363.0591   1413.83545     584.5229     363.0591
   1413.82019     581.6564     361.0640   1413.82019     581.6564     361.0640
   1413.80493     578.4332     360.1852   1413.80493     578.4332     360.1852
   1413.78967     573.9418     358.4825   1413.78967     573.9418     358.4825
   1413.77441     572.9061     356.5370   1413.77441     572.9061     356.5370
   1413.75916     569.2359     355.2861   1413.75916     569.2359     355.2861
   1413.74390     565.6113     353.9269   1413.74390     565.6113     353.9269
   1413.72864     563.2961     352.2001   1413.72864     563.2961     352.2001
   1413.71338     559.5195     351.0904   1413.71338     559.5195     351.0904
   1413.69812     556.8331     348.8020   1413.69812     556.8331     348.8020
   1413.68286     553.6841     347.0861   1413.68286     553.6841     347.0861
   1413.66760     550.9172     346.0365   1413.66760     550.9172     346.0365
   1413.65234     546.8602     344.1826   1413.65234     546.8602     344.1826
   1413.63708     545.1142     342.6094   1413.63708     545.1142     342.6094
   1413.62183     540.9893     340.4030   1413.62183     540.9893     340.4030
   1413.60657     537.3976     338.9091   1413.60657     537.3976     338.9091
   1413.59131     534.7617     337.3799   1413.59131     534.7617     337.3799
   1413.57605     531.9611     336.7349   1413.57605     531.9611     336.7349
   1413.56079     529.5403     334.7321   1413.56079     529.5403     334.7321
   1413.54553     526.0516     333.1277   1413.54553     526.0516     333.1277
   1413.53027     523.2894     331.2549   1413.53027     523.2894     331.2549
   1413.51501     519.7963     330.5518   1413.51501     519.7963     330.5518
   1413.49976     516.4768     328.3934   1413.49976     516.4768     328.3934
   1413.48450     514.3597     326.7132   1413.48450     514.3597     326.7132
   1413.46924     510.0926     325.2381   1413.46924     510.0926     325.2381
   1413.45398     507.0653     323.3017   1413.45398     507.0653     323.3017
   1413.43872     504.4694     322.0480   1413.43872     504.4694     322.0480
   1413.42346     501.8564     320.5870   1413.42346     501.8564     320.5870
   1413.40820     498.5023     319.3153   1413.40820     498.5023     319.3153
   1413.39294     494.8060     317.2227   1413.39294     494.8060     317.2227
   1413.37769     492.5581     316.5696   1413.37769     492.5581     316.5696
   1413.36243     489.7482     315.1113   1413.36243     489.7482     315.1113
   1413.34717     488.0205     313.4221   1413.34717     488.0205     313.4221
   1413.33191     484.1029     312.1093   1413.33191     484.1029     312.1093
   1413.31665     480.8064     310.2362   1413.31665     480.8064     310.2362
   1413.30139     478.7989     309.0492   1413.30139     478.7989     309.0492
   1413.28613     475.9932     307.7493   1413.28613     475.9932     307.7493
   1413.27087     473.1474     306.7782   1413.27087     473.1474     306.7782
   1413.25562     470.2080     305.0148   1413.25562     470.2080     305.0148
   1413.24036     467.6891     303.8564   1413.24036     467.6891     303.8564
   1413.22510     464.4187     302.8318   1413.22510     464.4187     302.8318
   1413.20984     461.2556     301.1080   1413.20984     461.2556     301.1080
   1413.19458     459.7445     300.0896   1413.19458     459.7445     300.0896
   1413.17932     457.3135     298.3518   1413.17932     457.3135     298.3518
   1413.16406     454.0002     297.7384   1413.16406     454.0002     297.7384
   1413.14880     451.3628     296.1621   1413.14880     451.3628     296.1621
   1413.13354     448.9712     295.3457   1413.13354     448.9712     295.3457
   1413.11829     445.6673     293.5123   1413.11829     445.6673     293.5123
   1413.10303     443.6754     293.0418   1413.10303     443.6754     293.0418
   1413.08777     441.2717     291.2693   1413.08777     441.2717     291.2693
   1413.07251     438.8256     290.3827   1413.07251     438.8256     290.3827
   1413.05725     436.7107     289.5289   1413.05725     436.7107     289.5289
   1413.04199     434.0219     288.2409   1413.04199     434.0219     288.2409
   1413.02673     431.9777     286.8083   1413.02673     431.9777     286.8083
   1413.01147     430.1570     286.1223   1413.01147     430.1570     286.1223
   1412.99622     426.8905     285.4626   1412.99622     426.8905     285.4626
   1412.98096     426.1465     284.6103   1412.98096     426.1465     284.6103
   1412.96570     423.2199     283.6132   1412.96570     423.2199     283.6132
   1412.95044     421.2356     282.1404   1412.95044     421.2356     282.1404
   1412.93518     419.1217     281.7292   1412.93518     419.1217     281.7292
   1412.91992     417.4140     280.5181   1412.91992     417.4140     280.5181
   1412.90466     415.3015     280.3391   1412.90466     415.3015     280.3391
   1412.88940     413.4925     279.5040   1412.88940     413.4925     279.5040
   1412.87415     411.2251     278.2812   1412.87415     411.2251     278.2812
   1412.85889     409.4648     277.7301   1412.85889     409.4648     277.7301
   1412.84363     407.4035     277.1840   1412.84363     407.4035     277.1840
   1412.82837     406.3897     276.5580   1412.82837     406.3897     276.5580
   1412.81311     404.4505     275.6100   1412.81311     404.4505     275.6100
   1412.79785     402.6451     275.3960   1412.79785     402.6451     275.3960
   1412.78259     400.8971     274.8910   1412.78259     400.8971     274.8910
   1412.76733     399.3688     273.9221   1412.76733     399.3688     273.9221
   1412.75208     397.3841     273.3690   1412.75208     397.3841     273.3690
   1412.73682     396.0928     273.0218   1412.73682     396.0928     273.0218
   1412.72156     394.9814     272.2702   1412.72156     394.9814     272.2702
   1412.70630     393.5647     271.7957   1412.70630     393.5647     271.7957
   1412.69104     392.0602     271.6907   1412.69104     392.0602     271.6907
   1412.67578     391.0556     271.1554   1412.67578     391.0556     271.1554
   1412.66052     390.1498     270.9861   1412.66052     390.1498     270.9861
   1412.64526     387.9556     270.6312   1412.64526     387.9556     270.6312
   1412.63000     387.7018     270.4596   1412.63000     387.7018     270.4596
   1412.61475     386.8415     270.5138   1412.61475     386.8415     270.5138
   1412.59949     385.8788     269.9940   1412.59949     385.8788     269.9940
   1412.58423     384.7471     269.5753   1412.58423     384.7471     269.5753
   1412.56897     384.0251     269.7460   1412.56897     384.0251     269.7460
   1412.55371     382.7283     269.5717   1412.55371     382.7283     269.5717
   1412.53845     382.6006     269.9309   1412.53845     382.6006     269.9309
   1412.52319     381.2481     269.8305   1412.52319     381.2481     269.8305
   1412.50793     380.8588     269.7603   1412.50793     380.8588     269.7603
   1412.49268     379.8696     270.2310   1412.49268     379.8696     270.2310
   1412.47742     379.7847     270.0236   1412.47742     379.7847     270.0236
   1412.46216     379.0298     269.6693   1412.46216     379.0298     269.6693
   1412.44690     378.5556     270.1977   1412.44690     378.5556     270.1977
   1412.43164     378.4240     270.4138   1412.43164     378.4240     270.4138
   1412.41638     377.7801     271.0156   1412.41638     377.7801     271.0156
   1412.40112     377.3623     270.7629   1412.40112     377.3623     270.7629
   1412.38586     377.8564     271.4962   1412.38586     377.8564     271.4962
   1412.37061     377.0487     271.9045   1412.37061     377.0487     271.9045
   1412.35535     377.3097     272.4611   1412.35535     377.3097     272.4611
   1412.34009     377.2508     272.9130   1412.34009     377.2508     272.9130
   1412.32483     377.9848     273.5106   1412.32483     377.9848     273.5106
   1412.30957     378.2369     273.9655   1412.30957     378.2369     273.9655
   1412.29431     378.1326     274.4298   1412.29431     378.1326     274.4298
   1412.27905     377.6289     274.9123   1412.27905     377.6289     274.9123
   1412.26379     378.4012     275.7451   1412.26379     378.4012     275.7451
   1412.24854     378.9264     276.5033   1412.24854     378.9264     276.5033
   1412.23328     379.3732     277.1679   1412.23328     379.3732     277.1679
   1412.21802     379.8710     277.5247   1412.21802     379.8710     277.5247
   1412.20276     380.1418     278.7675   1412.20276     380.1418     278.7675