#     FILENAME=!Skynet_57528_lach-hhg-109_20374_20916.cyb.fits
#     BASENAME=Skynet_57528_lach-hhg-109_20374_20916
#     SRC_NAME=lach-hhg-109
#     OBSERVER=hhgmadison16_9500
#     DATE_OBS=2016-05-20T15:41:25.250
#        OBSID=20374
#      SCANNUM=20916
#          MJD=57528.6548
#          UTC=56574
#     SCANTYPE=track
#     DATAMODE=HIRES
#     TUNEFREQ=1420.0000
# Actual_FREQ1=1420.0000
# Actual_FREQ2=1420.0000
#    LO1Tuning=6870.000
#     RFFILTER=1355_1435
#        OBSBW=-15.6250
#        NCHAN=1024 
#        FOCUS=37.0709
#           RA=22:57:19.29
#          DEC=59:44:47.62
#      RA(hrs)=22.955400
#     DEC(deg)=59.746600
#    AZIM(deg)=320.568
#    ELEV(deg)=52.237
#     IFattens=10.00, 9.00
#      WARNING=None
#    TCAL_XL1=7.9635
#    TCAL_YR1=9.1340
#    TCAL_XL2=7.9635
#    TCAL_YR2=9.1340
#     TRX_XL1=11.7060
#     TRX_YR1=11.7060
#     TRX_XL2=11.7060
#     TRX_YR2=11.7060
#        TAVE=1.0000
#Freq1(MHz)          XL1          YR1  Freq2(MHz)          XL2          YR2 

   1427.81250     379.8898     289.4761   1427.81250     379.8898     289.4761
   1427.79724     380.4659     290.5233   1427.79724     380.4659     290.5233
   1427.78198     381.3984     291.0416   1427.78198     381.3984     291.0416
   1427.76672     381.9286     292.3674   1427.76672     381.9286     292.3674
   1427.75146     382.3527     293.4139   1427.75146     382.3527     293.4139
   1427.73621     383.5268     293.7941   1427.73621     383.5268     293.7941
   1427.72095     384.9562     295.4360   1427.72095     384.9562     295.4360
   1427.70569     385.8840     296.5696   1427.70569     385.8840     296.5696
   1427.69043     386.1141     297.8319   1427.69043     386.1141     297.8319
   1427.67517     387.6396     298.8618   1427.67517     387.6396     298.8618
   1427.65991     388.8517     299.8220   1427.65991     388.8517     299.8220
   1427.64465     389.9035     300.9162   1427.64465     389.9035     300.9162
   1427.62939     390.4894     302.6747   1427.62939     390.4894     302.6747
   1427.61414     392.5919     303.4819   1427.61414     392.5919     303.4819
   1427.59888     393.4980     304.7985   1427.59888     393.4980     304.7985
   1427.58362     395.6083     306.6413   1427.58362     395.6083     306.6413
   1427.56836     396.9810     307.8185   1427.56836     396.9810     307.8185
   1427.55310     398.3626     309.1731   1427.55310     398.3626     309.1731
   1427.53784     399.9226     310.4482   1427.53784     399.9226     310.4482
   1427.52258     401.8825     311.9807   1427.52258     401.8825     311.9807
   1427.50732     403.4757     313.4733   1427.50732     403.4757     313.4733
   1427.49207     405.0020     314.6134   1427.49207     405.0020     314.6134
   1427.47681     406.8381     317.0847   1427.47681     406.8381     317.0847
   1427.46155     408.7378     318.4184   1427.46155     408.7378     318.4184
   1427.44629     410.8675     319.4496   1427.44629     410.8675     319.4496
   1427.43103     412.1249     321.7168   1427.43103     412.1249     321.7168
   1427.41577     413.9282     324.1511   1427.41577     413.9282     324.1511
   1427.40051     415.8779     325.2858   1427.40051     415.8779     325.2858
   1427.38525     417.5186     327.2895   1427.38525     417.5186     327.2895
   1427.37000     421.2401     328.7389   1427.37000     421.2401     328.7389
   1427.35474     422.8828     330.8016   1427.35474     422.8828     330.8016
   1427.33948     425.1638     332.4085   1427.33948     425.1638     332.4085
   1427.32422     427.0345     334.4168   1427.32422     427.0345     334.4168
   1427.30896     429.9748     336.6667   1427.30896     429.9748     336.6667
   1427.29370     430.9250     338.1920   1427.29370     430.9250     338.1920
   1427.27844     433.6799     340.0798   1427.27844     433.6799     340.0798
   1427.26318     436.4717     342.2228   1427.26318     436.4717     342.2228
   1427.24792     438.8322     344.1615   1427.24792     438.8322     344.1615
   1427.23267     441.0893     346.1933   1427.23267     441.0893     346.1933
   1427.21741     443.6018     348.3265   1427.21741     443.6018     348.3265
   1427.20215     446.3091     350.3620   1427.20215     446.3091     350.3620
   1427.18689     449.3628     351.8822   1427.18689     449.3628     351.8822
   1427.17163     451.6382     354.5175   1427.17163     451.6382     354.5175
   1427.15637     453.8499     356.4476   1427.15637     453.8499     356.4476
   1427.14111     456.9327     358.9442   1427.14111     456.9327     358.9442
   1427.12585     458.7180     360.7811   1427.12585     458.7180     360.7811
   1427.11060     462.1784     362.8271   1427.11060     462.1784     362.8271
   1427.09534     464.9531     365.2272   1427.09534     464.9531     365.2272
   1427.08008     467.6686     367.5928   1427.08008     467.6686     367.5928
   1427.06482     470.7916     369.6285   1427.06482     470.7916     369.6285
   1427.04956     474.0491     371.2894   1427.04956     474.0491     371.2894
   1427.03430     476.4977     373.9230   1427.03430     476.4977     373.9230
   1427.01904     479.7489     376.4638   1427.01904     479.7489     376.4638
   1427.00378     481.8096     378.6336   1427.00378     481.8096     378.6336
   1426.98853     485.4311     380.6899   1426.98853     485.4311     380.6899
   1426.97327     488.3267     383.5632   1426.97327     488.3267     383.5632
   1426.95801     490.8963     385.2724   1426.95801     490.8963     385.2724
   1426.94275     493.6407     387.6563   1426.94275     493.6407     387.6563
   1426.92749     497.8202     390.2332   1426.92749     497.8202     390.2332
   1426.91223     499.8130     392.7368   1426.91223     499.8130     392.7368
   1426.89697     501.8190     394.2364   1426.89697     501.8190     394.2364
   1426.88171     505.9491     397.1295   1426.88171     505.9491     397.1295
   1426.86646     508.8479     399.1476   1426.86646     508.8479     399.1476
   1426.85120     512.5220     401.7978   1426.85120     512.5220     401.7978
   1426.83594     514.4310     403.6004   1426.83594     514.4310     403.6004
   1426.82068     517.8723     406.5276   1426.82068     517.8723     406.5276
   1426.80542     521.3592     408.4577   1426.80542     521.3592     408.4577
   1426.79016     524.4269     409.8415   1426.79016     524.4269     409.8415
   1426.77490     527.1725     412.6062   1426.77490     527.1725     412.6062
   1426.75964     531.3978     415.5671   1426.75964     531.3978     415.5671
   1426.74438     533.8198     418.4195   1426.74438     533.8198     418.4195
   1426.72913     536.8900     420.4120   1426.72913     536.8900     420.4120
   1426.71387     540.3705     422.1854   1426.71387     540.3705     422.1854
   1426.69861     542.6354     424.5567   1426.69861     542.6354     424.5567
   1426.68335     545.7862     426.4840   1426.68335     545.7862     426.4840
   1426.66809     548.9042     429.3289   1426.66809     548.9042     429.3289
   1426.65283     551.8522     431.9075   1426.65283     551.8522     431.9075
   1426.63757     555.7556     433.8180   1426.63757     555.7556     433.8180
   1426.62231     560.4660     442.1323   1426.62231     560.4660     442.1323
   1426.60706     562.1385     440.0926   1426.60706     562.1385     440.0926
   1426.59180     565.6487     441.2527   1426.59180     565.6487     441.2527
   1426.57654     568.8320     442.4193   1426.57654     568.8320     442.4193
   1426.56128     572.5403     445.1645   1426.56128     572.5403     445.1645
   1426.54602     574.4841     446.8445   1426.54602     574.4841     446.8445
   1426.53076     578.1628     449.2235   1426.53076     578.1628     449.2235
   1426.51550     582.0037     451.1883   1426.51550     582.0037     451.1883
   1426.50024     585.0481     454.4634   1426.50024     585.0481     454.4634
   1426.48499     588.2386     455.6625   1426.48499     588.2386     455.6625
   1426.46973     590.4303     457.6814   1426.46973     590.4303     457.6814
   1426.45447     593.8608     461.1319   1426.45447     593.8608     461.1319
   1426.43921     596.5128     462.6900   1426.43921     596.5128     462.6900
   1426.42395     599.4152     464.4727   1426.42395     599.4152     464.4727
   1426.40869     602.6875     466.9589   1426.40869     602.6875     466.9589
   1426.39343     604.9542     468.5112   1426.39343     604.9542     468.5112
   1426.37817     608.7537     470.3282   1426.37817     608.7537     470.3282
   1426.36292     611.2471     473.4800   1426.36292     611.2471     473.4800
   1426.34766     614.4759     474.7224   1426.34766     614.4759     474.7224
   1426.33240     618.2239     476.4521   1426.33240     618.2239     476.4521
   1426.31714     620.3376     479.5773   1426.31714     620.3376     479.5773
   1426.30188     623.7804     481.1052   1426.30188     623.7804     481.1052
   1426.28662     626.4161     483.6444   1426.28662     626.4161     483.6444
   1426.27136     629.1791     484.7050   1426.27136     629.1791     484.7050
   1426.25610     632.3333     487.3915   1426.25610     632.3333     487.3915
   1426.24084     634.7944     488.5050   1426.24084     634.7944     488.5050
   1426.22559     637.2890     491.4653   1426.22559     637.2890     491.4653
   1426.21033     640.0730     492.0279   1426.21033     640.0730     492.0279
   1426.19507     643.0706     494.5609   1426.19507     643.0706     494.5609
   1426.17981     647.3465     496.6289   1426.17981     647.3465     496.6289
   1426.16455     648.7329     498.6487   1426.16455     648.7329     498.6487
   1426.14929     650.6113     500.2187   1426.14929     650.6113     500.2187
   1426.13403     653.7274     503.3358   1426.13403     653.7274     503.3358
   1426.11877     655.3144     503.7310   1426.11877     655.3144     503.7310
   1426.10352     659.8987     505.6603   1426.10352     659.8987     505.6603
   1426.08826     661.9726     507.4019   1426.08826     661.9726     507.4019
   1426.07300     664.5193     509.2186   1426.07300     664.5193     509.2186
   1426.05774     667.2233     511.2382   1426.05774     667.2233     511.2382
   1426.04248     668.6997     513.4100   1426.04248     668.6997     513.4100
   1426.02722     672.1838     514.3096   1426.02722     672.1838     514.3096
   1426.01196     673.9149     516.9364   1426.01196     673.9149     516.9364
   1425.99670     676.7943     518.2648   1425.99670     676.7943     518.2648
   1425.98145     677.5875     520.2132   1425.98145     677.5875     520.2132
   1425.96619     681.9297     522.0915   1425.96619     681.9297     522.0915
   1425.95093     683.5438     522.5330   1425.95093     683.5438     522.5330
   1425.93567     685.9338     524.7215   1425.93567     685.9338     524.7215
   1425.92041     688.2613     526.1463   1425.92041     688.2613     526.1463
   1425.90515     690.2820     527.5907   1425.90515     690.2820     527.5907
   1425.88989     692.3751     529.2730   1425.88989     692.3751     529.2730
   1425.87463     694.4011     530.9313   1425.87463     694.4011     530.9313
   1425.85938     696.5094     532.0189   1425.85938     696.5094     532.0189
   1425.84412     699.9186     534.2480   1425.84412     699.9186     534.2480
   1425.82886     701.5790     535.4641   1425.82886     701.5790     535.4641
   1425.81360     703.2765     538.0580   1425.81360     703.2765     538.0580
   1425.79834     705.5768     539.5608   1425.79834     705.5768     539.5608
   1425.78308     706.6162     539.6647   1425.78308     706.6162     539.6647
   1425.76782     708.8370     542.8763   1425.76782     708.8370     542.8763
   1425.75256     711.3623     543.2495   1425.75256     711.3623     543.2495
   1425.73730     713.1149     545.1651   1425.73730     713.1149     545.1651
   1425.72205     715.1119     545.8721   1425.72205     715.1119     545.8721
   1425.70679     716.2406     548.1760   1425.70679     716.2406     548.1760
   1425.69153     717.9278     549.5494   1425.69153     717.9278     549.5494
   1425.67627     720.7607     550.9202   1425.67627     720.7607     550.9202
   1425.66101     723.0922     551.7253   1425.66101     723.0922     551.7253
   1425.64575     723.4191     553.9273   1425.64575     723.4191     553.9273
   1425.63049     725.9738     554.2446   1425.63049     725.9738     554.2446
   1425.61523     727.0311     556.1713   1425.61523     727.0311     556.1713
   1425.59998     728.1691     556.9537   1425.59998     728.1691     556.9537
   1425.58472     730.6191     558.2985   1425.58472     730.6191     558.2985
   1425.56946     731.8970     559.8156   1425.56946     731.8970     559.8156
   1425.55420     733.3900     560.8009   1425.55420     733.3900     560.8009
   1425.53894     734.3687     561.7341   1425.53894     734.3687     561.7341
   1425.52368     736.3908     564.0355   1425.52368     736.3908     564.0355
   1425.50842     737.5128     564.8845   1425.50842     737.5128     564.8845
   1425.49316     738.4314     566.0070   1425.49316     738.4314     566.0070
   1425.47791     740.2502     567.1923   1425.47791     740.2502     567.1923
   1425.46265     742.0189     568.5091   1425.46265     742.0189     568.5091
   1425.44739     742.3365     569.5036   1425.44739     742.3365     569.5036
   1425.43213     743.5853     570.9065   1425.43213     743.5853     570.9065
   1425.41687     746.6168     572.9822   1425.41687     746.6168     572.9822
   1425.40161     747.1758     572.7673   1425.40161     747.1758     572.7673
   1425.38635     748.4761     574.1979   1425.38635     748.4761     574.1979
   1425.37109     748.5372     574.3307   1425.37109     748.5372     574.3307
   1425.35583     750.2634     575.8195   1425.35583     750.2634     575.8195
   1425.34058     751.4375     577.8990   1425.34058     751.4375     577.8990
   1425.32532     751.8181     578.3215   1425.32532     751.8181     578.3215
   1425.31006     752.9554     579.7598   1425.31006     752.9554     579.7598
   1425.29480     754.1132     580.5979   1425.29480     754.1132     580.5979
   1425.27954     755.8104     581.4778   1425.27954     755.8104     581.4778
   1425.26428     755.9918     583.5793   1425.26428     755.9918     583.5793
   1425.24902     756.8448     583.8289   1425.24902     756.8448     583.8289
   1425.23376     756.3528     583.7095   1425.23376     756.3528     583.7095
   1425.21851     759.0950     585.7719   1425.21851     759.0950     585.7719
   1425.20325     759.1700     587.3828   1425.20325     759.1700     587.3828
   1425.18799     759.2860     587.5837   1425.18799     759.2860     587.5837
   1425.17273     760.8594     588.6342   1425.17273     760.8594     588.6342
   1425.15747     761.6745     588.4031   1425.15747     761.6745     588.4031
   1425.14221     762.3621     590.3716   1425.14221     762.3621     590.3716
   1425.12695     762.7399     591.0226   1425.12695     762.7399     591.0226
   1425.11169     763.7764     592.7368   1425.11169     763.7764     592.7368
   1425.09644     764.5312     592.9828   1425.09644     764.5312     592.9828
   1425.08118     765.0230     594.3829   1425.08118     765.0230     594.3829
   1425.06592     764.2480     594.7668   1425.06592     764.2480     594.7668
   1425.05066     765.8656     595.5461   1425.05066     765.8656     595.5461
   1425.03540     767.5372     596.7238   1425.03540     767.5372     596.7238
   1425.02014     767.5355     597.0837   1425.02014     767.5355     597.0837
   1425.00488     766.7894     598.8640   1425.00488     766.7894     598.8640
   1424.98962     766.5814     598.7885   1424.98962     766.5814     598.7885
   1424.97437     767.3083     599.8906   1424.97437     767.3083     599.8906
   1424.95911     769.1213     600.3083   1424.95911     769.1213     600.3083
   1424.94385     769.6340     600.8458   1424.94385     769.6340     600.8458
   1424.92859     768.0063     601.8873   1424.92859     768.0063     601.8873
   1424.91333     769.4747     603.0114   1424.91333     769.4747     603.0114
   1424.89807     768.8933     603.1301   1424.89807     768.8933     603.1301
   1424.88281     771.3444     604.9028   1424.88281     771.3444     604.9028
   1424.86755     769.6270     605.4380   1424.86755     769.6270     605.4380
   1424.85229     770.2539     605.9662   1424.85229     770.2539     605.9662
   1424.83704     770.1686     605.8903   1424.83704     770.1686     605.8903
   1424.82178     770.9572     606.1818   1424.82178     770.9572     606.1818
   1424.80652     772.0991     607.7728   1424.80652     772.0991     607.7728
   1424.79126     771.0284     608.3699   1424.79126     771.0284     608.3699
   1424.77600     771.5031     608.3552   1424.77600     771.5031     608.3552
   1424.76074     771.5159     608.7902   1424.76074     771.5159     608.7902
   1424.74548     772.0370     610.5317   1424.74548     772.0370     610.5317
   1424.73022     772.2555     611.7121   1424.73022     772.2555     611.7121
   1424.71497     771.9139     612.0320   1424.71497     771.9139     612.0320
   1424.69971     772.6669     611.8640   1424.69971     772.6669     611.8640
   1424.68445     771.6423     612.0974   1424.68445     771.6423     612.0974
   1424.66919     771.7333     613.1995   1424.66919     771.7333     613.1995
   1424.65393     771.5864     613.6602   1424.65393     771.5864     613.6602
   1424.63867     771.3053     615.3618   1424.63867     771.3053     615.3618
   1424.62341     772.2097     615.8584   1424.62341     772.2097     615.8584
   1424.60815     772.8991     617.2910   1424.60815     772.8991     617.2910
   1424.59290     771.7850     616.2427   1424.59290     771.7850     616.2427
   1424.57764     772.6258     616.6614   1424.57764     772.6258     616.6614
   1424.56238     772.5189     618.1832   1424.56238     772.5189     618.1832
   1424.54712     770.7486     619.1957   1424.54712     770.7486     619.1957
   1424.53186     772.3353     619.4038   1424.53186     772.3353     619.4038
   1424.51660     771.1464     619.8760   1424.51660     771.1464     619.8760
   1424.50134     771.2274     619.4810   1424.50134     771.2274     619.4810
   1424.48608     771.3861     621.1302   1424.48608     771.3861     621.1302
   1424.47083     771.8072     622.2063   1424.47083     771.8072     622.2063
   1424.45557     771.9727     622.3856   1424.45557     771.9727     622.3856
   1424.44031     771.6858     623.0713   1424.44031     771.6858     623.0713
   1424.42505     770.8279     622.9221   1424.42505     770.8279     622.9221
   1424.40979     770.5195     623.5223   1424.40979     770.5195     623.5223
   1424.39453     771.4990     625.3497   1424.39453     771.4990     625.3497
   1424.37927     771.6339     624.9788   1424.37927     771.6339     624.9788
   1424.36401     769.7518     625.5823   1424.36401     769.7518     625.5823
   1424.34875     769.6714     625.4277   1424.34875     769.6714     625.4277
   1424.33350     770.0790     626.7138   1424.33350     770.0790     626.7138
   1424.31824     770.2358     626.4287   1424.31824     770.2358     626.4287
   1424.30298     769.4894     626.5933   1424.30298     769.4894     626.5933
   1424.28772     769.3516     627.6739   1424.28772     769.3516     627.6739
   1424.27246     769.4105     628.0364   1424.27246     769.4105     628.0364
   1424.25720     769.0608     628.7202   1424.25720     769.0608     628.7202
   1424.24194     768.9733     628.2953   1424.24194     768.9733     628.2953
   1424.22668     767.5970     631.1266   1424.22668     767.5970     631.1266
   1424.21143     768.7404     630.1392   1424.21143     768.7404     630.1392
   1424.19617     768.4022     630.5784   1424.19617     768.4022     630.5784
   1424.18091     768.5933     631.9737   1424.18091     768.5933     631.9737
   1424.16565     767.6869     630.6901   1424.16565     767.6869     630.6901
   1424.15039     767.7595     632.6388   1424.15039     767.7595     632.6388
   1424.13513     767.1133     632.4188   1424.13513     767.1133     632.4188
   1424.11987     766.4470     632.4853   1424.11987     766.4470     632.4853
   1424.10461     767.0342     632.8483   1424.10461     767.0342     632.8483
   1424.08936     766.2678     632.8246   1424.08936     766.2678     632.8246
   1424.07410     766.9792     633.1934   1424.07410     766.9792     633.1934
   1424.05884     764.9431     633.9042   1424.05884     764.9431     633.9042
   1424.04358     766.1065     634.2098   1424.04358     766.1065     634.2098
   1424.02832     765.8108     634.5446   1424.02832     765.8108     634.5446
   1424.01306     764.4305     634.4250   1424.01306     764.4305     634.4250
   1423.99780     764.4416     635.5679   1423.99780     764.4416     635.5679
   1423.98254     764.9537     635.6575   1423.98254     764.9537     635.6575
   1423.96729     764.8336     636.0516   1423.96729     764.8336     636.0516
   1423.95203     763.6219     635.9379   1423.95203     763.6219     635.9379
   1423.93677     763.4244     636.8828   1423.93677     763.4244     636.8828
   1423.92151     763.5098     637.9620   1423.92151     763.5098     637.9620
   1423.90625     762.8355     637.6725   1423.90625     762.8355     637.6725
   1423.89099     762.1249     638.2681   1423.89099     762.1249     638.2681
   1423.87573     761.5696     638.4741   1423.87573     761.5696     638.4741
   1423.86047     762.5364     638.4417   1423.86047     762.5364     638.4417
   1423.84521     760.3823     638.0286   1423.84521     760.3823     638.0286
   1423.82996     761.0557     639.3755   1423.82996     761.0557     639.3755
   1423.81470     760.1182     639.3417   1423.81470     760.1182     639.3417
   1423.79944     760.0623     640.2133   1423.79944     760.0623     640.2133
   1423.78418     760.7418     639.2748   1423.78418     760.7418     639.2748
   1423.76892     758.7706     639.2592   1423.76892     758.7706     639.2592
   1423.75366     759.8473     640.0961   1423.75366     759.8473     640.0961
   1423.73840     758.6614     639.8409   1423.73840     758.6614     639.8409
   1423.72314     758.3253     640.6061   1423.72314     758.3253     640.6061
   1423.70789     757.9371     640.2722   1423.70789     757.9371     640.2722
   1423.69263     758.7538     642.2059   1423.69263     758.7538     642.2059
   1423.67737     758.1242     640.9241   1423.67737     758.1242     640.9241
   1423.66211     757.6606     641.6246   1423.66211     757.6606     641.6246
   1423.64685     757.6599     641.5476   1423.64685     757.6599     641.5476
   1423.63159     758.1645     641.1010   1423.63159     758.1645     641.1010
   1423.61633     756.1826     642.5840   1423.61633     756.1826     642.5840
   1423.60107     756.4900     640.9757   1423.60107     756.4900     640.9757
   1423.58582     756.9114     642.8318   1423.58582     756.9114     642.8318
   1423.57056     755.3475     641.5536   1423.57056     755.3475     641.5536
   1423.55530     754.7265     642.7629   1423.55530     754.7265     642.7629
   1423.54004     754.5195     641.2374   1423.54004     754.5195     641.2374
   1423.52478     755.1252     642.5234   1423.52478     755.1252     642.5234
   1423.50952     754.9418     641.7177   1423.50952     754.9418     641.7177
   1423.49426     753.6468     642.2879   1423.49426     753.6468     642.2879
   1423.47900     754.2560     643.0763   1423.47900     754.2560     643.0763
   1423.46375     754.0010     640.7106   1423.46375     754.0010     640.7106
   1423.44849     754.0782     641.5616   1423.44849     754.0782     641.5616
   1423.43323     751.9252     642.3174   1423.43323     751.9252     642.3174
   1423.41797     752.6342     642.4338   1423.41797     752.6342     642.4338
   1423.40271     753.2802     641.5453   1423.40271     753.2802     641.5453
   1423.38745     752.7343     641.6725   1423.38745     752.7343     641.6725
   1423.37219     752.8768     643.9075   1423.37219     752.8768     643.9075
   1423.35693     752.2169     641.9130   1423.35693     752.2169     641.9130
   1423.34167     751.3821     641.3712   1423.34167     751.3821     641.3712
   1423.32642     751.0222     641.7604   1423.32642     751.0222     641.7604
   1423.31116     749.4506     640.1239   1423.31116     749.4506     640.1239
   1423.29590     749.8168     641.1272   1423.29590     749.8168     641.1272
   1423.28064     750.6492     640.8577   1423.28064     750.6492     640.8577
   1423.26538     749.3440     641.1161   1423.26538     749.3440     641.1161
   1423.25012     749.4146     640.8368   1423.25012     749.4146     640.8368
   1423.23486     748.2876     640.1587   1423.23486     748.2876     640.1587
   1423.21960     748.6252     640.8389   1423.21960     748.6252     640.8389
   1423.20435     748.9250     640.8262   1423.20435     748.9250     640.8262
   1423.18909     748.3353     640.7244   1423.18909     748.3353     640.7244
   1423.17383     747.8043     639.9989   1423.17383     747.8043     639.9989
   1423.15857     746.6258     638.9091   1423.15857     746.6258     638.9091
   1423.14331     747.7400     640.2748   1423.14331     747.7400     640.2748
   1423.12805     747.8094     638.9651   1423.12805     747.8094     638.9651
   1423.11279     746.4196     639.0693   1423.11279     746.4196     639.0693
   1423.09753     747.3630     638.5794   1423.09753     747.3630     638.5794
   1423.08228     745.8358     637.8511   1423.08228     745.8358     637.8511
   1423.06702     746.7718     637.7587   1423.06702     746.7718     637.7587
   1423.05176     745.6990     638.1266   1423.05176     745.6990     638.1266
   1423.03650     746.4843     636.8624   1423.03650     746.4843     636.8624
   1423.02124     745.5690     636.9418   1423.02124     745.5690     636.9418
   1423.00598     745.1559     636.9110   1423.00598     745.1559     636.9110
   1422.99072     743.9382     636.2587   1422.99072     743.9382     636.2587
   1422.97546     744.9312     635.3428   1422.97546     744.9312     635.3428
   1422.96021     743.9529     635.5721   1422.96021     743.9529     635.5721
   1422.94495     743.6279     635.7319   1422.94495     743.6279     635.7319
   1422.92969     742.7225     634.6571   1422.92969     742.7225     634.6571
   1422.91443     743.3688     633.2231   1422.91443     743.3688     633.2231
   1422.89917     742.5768     634.0139   1422.89917     742.5768     634.0139
   1422.88391     742.6849     633.7077   1422.88391     742.6849     633.7077
   1422.86865     742.7621     633.1841   1422.86865     742.7621     633.1841
   1422.85339     742.1627     632.2064   1422.85339     742.1627     632.2064
   1422.83813     742.7220     631.2806   1422.83813     742.7220     631.2806
   1422.82288     741.1799     630.6304   1422.82288     741.1799     630.6304
   1422.80762     741.2841     631.5700   1422.80762     741.2841     631.5700
   1422.79236     740.2938     630.0051   1422.79236     740.2938     630.0051
   1422.77710     741.1985     628.5781   1422.77710     741.1985     628.5781
   1422.76184     740.4778     629.1204   1422.76184     740.4778     629.1204
   1422.74658     741.2787     627.9135   1422.74658     741.2787     627.9135
   1422.73132     740.4466     627.2489   1422.73132     740.4466     627.2489
   1422.71606     739.4991     626.9659   1422.71606     739.4991     626.9659
   1422.70081     739.6234     625.9755   1422.70081     739.6234     625.9755
   1422.68555     740.6809     625.7532   1422.68555     740.6809     625.7532
   1422.67029     739.3335     624.6758   1422.67029     739.3335     624.6758
   1422.65503     739.3121     624.5767   1422.65503     739.3121     624.5767
   1422.63977     738.1472     623.2880   1422.63977     738.1472     623.2880
   1422.62451     739.0956     622.9939   1422.62451     739.0956     622.9939
   1422.60925     737.6847     621.8013   1422.60925     737.6847     621.8013
   1422.59399     738.4360     621.8547   1422.59399     738.4360     621.8547
   1422.57874     737.5596     620.1813   1422.57874     737.5596     620.1813
   1422.56348     737.9710     619.9749   1422.56348     737.9710     619.9749
   1422.54822     737.0148     618.1861   1422.54822     737.0148     618.1861
   1422.53296     738.1015     617.9334   1422.53296     738.1015     617.9334
   1422.51770     736.0501     617.9038   1422.51770     736.0501     617.9038
   1422.50244     737.4381     617.1578   1422.50244     737.4381     617.1578
   1422.48718     736.3024     614.8820   1422.48718     736.3024     614.8820
   1422.47192     736.2717     615.4196   1422.47192     736.2717     615.4196
   1422.45667     736.1088     613.8596   1422.45667     736.1088     613.8596
   1422.44141     736.0828     612.2796   1422.44141     736.0828     612.2796
   1422.42615     734.8438     611.4246   1422.42615     734.8438     611.4246
   1422.41089     736.3509     611.3041   1422.41089     736.3509     611.3041
   1422.39563     735.4959     609.5161   1422.39563     735.4959     609.5161
   1422.38037     734.3029     609.8201   1422.38037     734.3029     609.8201
   1422.36511     733.9883     608.2184   1422.36511     733.9883     608.2184
   1422.34985     735.4404     607.0297   1422.34985     735.4404     607.0297
   1422.33459     735.1151     606.2651   1422.33459     735.1151     606.2651
   1422.31934     732.9903     606.6403   1422.31934     732.9903     606.6403
   1422.30408     733.1027     605.0143   1422.30408     733.1027     605.0143
   1422.28882     733.7388     603.3055   1422.28882     733.7388     603.3055
   1422.27356     734.0664     602.5400   1422.27356     734.0664     602.5400
   1422.25830     732.8300     601.2606   1422.25830     732.8300     601.2606
   1422.24304     733.7628     599.9702   1422.24304     733.7628     599.9702
   1422.22778     732.7933     598.8082   1422.22778     732.7933     598.8082
   1422.21252     732.8354     598.2734   1422.21252     732.8354     598.2734
   1422.19727     733.0608     597.8678   1422.19727     733.0608     597.8678
   1422.18201     731.6832     595.3376   1422.18201     731.6832     595.3376
   1422.16675     731.8476     594.3197   1422.16675     731.8476     594.3197
   1422.15149     732.1628     593.7170   1422.15149     732.1628     593.7170
   1422.13623     730.7816     592.4476   1422.13623     730.7816     592.4476
   1422.12097     729.9041     592.4673   1422.12097     729.9041     592.4673
   1422.10571     730.2352     590.1800   1422.10571     730.2352     590.1800
   1422.09045     729.7360     589.5956   1422.09045     729.7360     589.5956
   1422.07520     730.2427     588.7191   1422.07520     730.2427     588.7191
   1422.05994     729.7455     586.8390   1422.05994     729.7455     586.8390
   1422.04468     730.2155     585.8340   1422.04468     730.2155     585.8340
   1422.02942     729.4068     585.5836   1422.02942     729.4068     585.5836
   1422.01416     728.8388     584.0991   1422.01416     728.8388     584.0991
   1421.99890     729.5553     582.3561   1421.99890     729.5553     582.3561
   1421.98364     728.7693     580.7387   1421.98364     728.7693     580.7387
   1421.96838     728.8002     579.7000   1421.96838     728.8002     579.7000
   1421.95312     727.8572     579.4618   1421.95312     727.8572     579.4618
   1421.93787     728.0321     578.0024   1421.93787     728.0321     578.0024
   1421.92261     727.5034     576.6377   1421.92261     727.5034     576.6377
   1421.90735     727.1640     574.8232   1421.90735     727.1640     574.8232
   1421.89209     727.9870     574.6616   1421.89209     727.9870     574.6616
   1421.87683     727.2696     573.0477   1421.87683     727.2696     573.0477
   1421.86157     728.1942     571.1959   1421.86157     728.1942     571.1959
   1421.84631     727.4586     571.1138   1421.84631     727.4586     571.1138
   1421.83105     726.5326     569.9543   1421.83105     726.5326     569.9543
   1421.81580     726.7473     569.1668   1421.81580     726.7473     569.1668
   1421.80054     725.9410     567.4125   1421.80054     725.9410     567.4125
   1421.78528     725.1791     566.1602   1421.78528     725.1791     566.1602
   1421.77002     725.8522     564.7897   1421.77002     725.8522     564.7897
   1421.75476     727.2768     563.9497   1421.75476     727.2768     563.9497
   1421.73950     724.9913     561.2430   1421.73950     724.9913     561.2430
   1421.72424     725.6406     561.1647   1421.72424     725.6406     561.1647
   1421.70898     725.4482     559.5703   1421.70898     725.4482     559.5703
   1421.69373     725.7595     558.7764   1421.69373     725.7595     558.7764
   1421.67847     724.3291     557.1694   1421.67847     724.3291     557.1694
   1421.66321     723.8609     556.1081   1421.66321     723.8609     556.1081
   1421.64795     724.4041     554.9618   1421.64795     724.4041     554.9618
   1421.63269     723.9813     552.8376   1421.63269     723.9813     552.8376
   1421.61743     723.1133     552.2222   1421.61743     723.1133     552.2222
   1421.60217     722.2023     550.0253   1421.60217     722.2023     550.0253
   1421.58691     722.0416     549.1795   1421.58691     722.0416     549.1795
   1421.57166     722.9271     547.9352   1421.57166     722.9271     547.9352
   1421.55640     722.0690     547.5958   1421.55640     722.0690     547.5958
   1421.54114     722.7005     545.5984   1421.54114     722.7005     545.5984
   1421.52588     721.2143     544.0266   1421.52588     721.2143     544.0266
   1421.51062     721.5292     542.5373   1421.51062     721.5292     542.5373
   1421.49536     720.5086     542.0745   1421.49536     720.5086     542.0745
   1421.48010     722.2094     540.6508   1421.48010     722.2094     540.6508
   1421.46484     720.6185     538.7916   1421.46484     720.6185     538.7916
   1421.44958     719.3548     537.7686   1421.44958     719.3548     537.7686
   1421.43433     718.8699     536.6704   1421.43433     718.8699     536.6704
   1421.41907     721.1398     535.2951   1421.41907     721.1398     535.2951
   1421.40381     721.0821     533.3925   1421.40381     721.0821     533.3925
   1421.38855     720.5298     532.2366   1421.38855     720.5298     532.2366
   1421.37329     719.8788     532.2521   1421.37329     719.8788     532.2521
   1421.35803     718.8624     529.9931   1421.35803     718.8624     529.9931
   1421.34277     718.4657     528.8199   1421.34277     718.4657     528.8199
   1421.32751     719.8749     527.9131   1421.32751     719.8749     527.9131
   1421.31226     719.9645     527.1271   1421.31226     719.9645     527.1271
   1421.29700     719.9205     525.8324   1421.29700     719.9205     525.8324
   1421.28174     718.8967     523.7854   1421.28174     718.8967     523.7854
   1421.26648     720.0166     523.8688   1421.26648     720.0166     523.8688
   1421.25122     719.5562     522.4716   1421.25122     719.5562     522.4716
   1421.23596     721.1968     522.3441   1421.23596     721.1968     522.3441
   1421.22070     721.7893     521.2328   1421.22070     721.7893     521.2328
   1421.20544     723.1362     521.0920   1421.20544     723.1362     521.0920
   1421.19019     724.3813     521.2350   1421.19019     724.3813     521.2350
   1421.17493     725.2299     521.7382   1421.17493     725.2299     521.7382
   1421.15967     727.4600     520.4826   1421.15967     727.4600     520.4826
   1421.14441     729.4670     521.8521   1421.14441     729.4670     521.8521
   1421.12915     732.5054     523.6807   1421.12915     732.5054     523.6807
   1421.11389     736.9017     524.8332   1421.11389     736.9017     524.8332
   1421.09863     744.7260     527.4922   1421.09863     744.7260     527.4922
   1421.08337     751.5015     532.3525   1421.08337     751.5015     532.3525
   1421.06812     760.4307     537.1025   1421.06812     760.4307     537.1025
   1421.05286     773.2803     543.6254   1421.05286     773.2803     543.6254
   1421.03760     783.2173     551.3293   1421.03760     783.2173     551.3293
   1421.02234     799.3175     559.6760   1421.02234     799.3175     559.6760
   1421.00708     824.9778     576.9369   1421.00708     824.9778     576.9369
   1420.99182     873.2280     608.8966   1420.99182     873.2280     608.8966
   1420.97656     924.1667     642.2357   1420.97656     924.1667     642.2357
   1420.96130     916.7711     636.7818   1420.96130     916.7711     636.7818
   1420.94604     928.6192     642.0671   1420.94604     928.6192     642.0671
   1420.93079     913.6667     630.4373   1420.93079     913.6667     630.4373
   1420.91553     882.2161     605.7894   1420.91553     882.2161     605.7894
   1420.90027     890.6641     613.4420   1420.90027     890.6641     613.4420
   1420.88501     946.8693     650.0294   1420.88501     946.8693     650.0294
   1420.86975    1036.6538     707.6816   1420.86975    1036.6538     707.6816
   1420.85449    1136.9229     771.1412   1420.85449    1136.9229     771.1412
   1420.83923    1219.2164     825.3539   1420.83923    1219.2164     825.3539
   1420.82397    1274.1821     860.3620   1420.82397    1274.1821     860.3620
   1420.80872    1292.2715     870.8267   1420.80872    1292.2715     870.8267
   1420.79346    1385.1426     931.0554   1420.79346    1385.1426     931.0554
   1420.77820    1718.3878    1148.6077   1420.77820    1718.3878    1148.6077
   1420.76294    2052.0857    1367.3873   1420.76294    2052.0857    1367.3873
   1420.74768    2196.3701    1458.6406   1420.74768    2196.3701    1458.6406
   1420.73242    2385.1206    1576.0217   1420.73242    2385.1206    1576.0217
   1420.71716    2267.0874    1495.5601   1420.71716    2267.0874    1495.5601
   1420.70190    1921.3481    1265.4657   1420.70190    1921.3481    1265.4657
   1420.68665    1492.7295     987.7130   1420.68665    1492.7295     987.7130
   1420.67139    1303.1803     860.6976   1420.67139    1303.1803     860.6976
   1420.65613    1158.9314     765.4451   1420.65613    1158.9314     765.4451
   1420.64087    1030.9180     680.5400   1420.64087    1030.9180     680.5400
   1420.62561     944.4656     624.7969   1420.62561     944.4656     624.7969
   1420.61035     918.8311     607.3513   1420.61035     918.8311     607.3513
   1420.59509     947.6105     624.7064   1420.59509     947.6105     624.7064
   1420.57983    1028.0383     676.4415   1420.57983    1028.0383     676.4415
   1420.56458    1243.7748     810.9030   1420.56458    1243.7748     810.9030
   1420.54932    1655.1382    1072.4630   1420.54932    1655.1382    1072.4630
   1420.53406    2120.1294    1369.7181   1420.53406    2120.1294    1369.7181
   1420.51880    2287.0278    1471.0170   1420.51880    2287.0278    1471.0170
   1420.50354    2094.3308    1345.1185   1420.50354    2094.3308    1345.1185
   1420.48828    1591.1899    1025.1174   1420.48828    1591.1899    1025.1174
   1420.47302    1178.7574     759.5909   1420.47302    1178.7574     759.5909
   1420.45776     944.9374     610.0587   1420.45776     944.9374     610.0587
   1420.44250     828.0142     535.8441   1420.44250     828.0142     535.8441
   1420.42725     771.6075     499.4973   1420.42725     771.6075     499.4973
   1420.41199     745.2861     481.3825   1420.41199     745.2861     481.3825
   1420.39673     731.2948     472.4279   1420.39673     731.2948     472.4279
   1420.38147     721.7558     466.8123   1420.38147     721.7558     466.8123
   1420.36621     717.9888     463.1520   1420.36621     717.9888     463.1520
   1420.35095     715.6083     460.9372   1420.35095     715.6083     460.9372
   1420.33569     714.2955     459.8575   1420.33569     714.2955     459.8575
   1420.32043     713.1032     458.0106   1420.32043     713.1032     458.0106
   1420.30518     713.2917     456.7349   1420.30518     713.2917     456.7349
   1420.28992     711.9359     455.1337   1420.28992     711.9359     455.1337
   1420.27466     711.7075     453.3941   1420.27466     711.7075     453.3941
   1420.25940     711.5594     452.4722   1420.25940     711.5594     452.4722
   1420.24414     711.0315     451.3996   1420.24414     711.0315     451.3996
   1420.22888     710.5572     450.1604   1420.22888     710.5572     450.1604
   1420.21362     709.7598     449.2760   1420.21362     709.7598     449.2760
   1420.19836     708.7492     448.4555   1420.19836     708.7492     448.4555
   1420.18311     708.1362     447.2073   1420.18311     708.1362     447.2073
   1420.16785     708.0005     445.3391   1420.16785     708.0005     445.3391
   1420.15259     706.2023     444.4179   1420.15259     706.2023     444.4179
   1420.13733     705.0043     444.1081   1420.13733     705.0043     444.1081
   1420.12207     704.5172     442.8917   1420.12207     704.5172     442.8917
   1420.10681     704.8790     441.4627   1420.10681     704.8790     441.4627
   1420.09155     703.5976     440.2868   1420.09155     703.5976     440.2868
   1420.07629     704.4296     439.9741   1420.07629     704.4296     439.9741
   1420.06104     703.7468     438.5473   1420.06104     703.7468     438.5473
   1420.04578     702.7756     438.0018   1420.04578     702.7756     438.0018
   1420.03052     704.7908     436.9855   1420.03052     704.7908     436.9855
   1420.01526     704.5754     437.6392   1420.01526     704.5754     437.6392
   1420.00000     704.8964     438.2302   1420.00000     704.8964     438.2302
   1419.98474     705.2177     438.8212   1419.98474     705.2177     438.8212
   1419.96948     706.6931     435.8563   1419.96948     706.6931     435.8563
   1419.95422     702.0232     434.0473   1419.95422     702.0232     434.0473
   1419.93896     702.9727     433.7957   1419.93896     702.9727     433.7957
   1419.92371     704.5225     433.2165   1419.92371     704.5225     433.2165
   1419.90845     703.3760     433.0384   1419.90845     703.3760     433.0384
   1419.89319     703.1931     431.7766   1419.89319     703.1931     431.7766
   1419.87793     703.6903     431.8934   1419.87793     703.6903     431.8934
   1419.86267     704.0143     431.3915   1419.86267     704.0143     431.3915
   1419.84741     704.0355     430.3472   1419.84741     704.0355     430.3472
   1419.83215     704.8093     430.4412   1419.83215     704.8093     430.4412
   1419.81689     703.6937     430.3042   1419.81689     703.6937     430.3042
   1419.80164     704.1964     429.6152   1419.80164     704.1964     429.6152
   1419.78638     705.4135     428.5981   1419.78638     705.4135     428.5981
   1419.77112     704.8519     428.9223   1419.77112     704.8519     428.9223
   1419.75586     705.0056     428.3360   1419.75586     705.0056     428.3360
   1419.74060     705.5394     428.1203   1419.74060     705.5394     428.1203
   1419.72534     704.7056     427.8058   1419.72534     704.7056     427.8058
   1419.71008     705.5898     427.6295   1419.71008     705.5898     427.6295
   1419.69482     705.9537     427.0403   1419.69482     705.9537     427.0403
   1419.67957     706.4110     427.4648   1419.67957     706.4110     427.4648
   1419.66431     707.8749     426.9930   1419.66431     707.8749     426.9930
   1419.64905     707.7636     426.3443   1419.64905     707.7636     426.3443
   1419.63379     708.4347     425.4985   1419.63379     708.4347     425.4985
   1419.61853     707.0953     425.0563   1419.61853     707.0953     425.0563
   1419.60327     708.3513     425.3802   1419.60327     708.3513     425.3802
   1419.58801     707.9851     425.0278   1419.58801     707.9851     425.0278
   1419.57275     709.5453     425.1368   1419.57275     709.5453     425.1368
   1419.55750     710.2331     424.7282   1419.55750     710.2331     424.7282
   1419.54224     709.6915     425.1763   1419.54224     709.6915     425.1763
   1419.52698     709.5260     424.7236   1419.52698     709.5260     424.7236
   1419.51172     710.2962     424.6198   1419.51172     710.2962     424.6198
   1419.49646     709.9011     424.5598   1419.49646     709.9011     424.5598
   1419.48120     711.1635     424.0409   1419.48120     711.1635     424.0409
   1419.46594     711.0501     424.5041   1419.46594     711.0501     424.5041
   1419.45068     710.9525     424.2405   1419.45068     710.9525     424.2405
   1419.43542     712.0903     423.8691   1419.43542     712.0903     423.8691
   1419.42017     712.3846     424.1010   1419.42017     712.3846     424.1010
   1419.40491     712.2264     423.5263   1419.40491     712.2264     423.5263
   1419.38965     712.6234     423.9796   1419.38965     712.6234     423.9796
   1419.37439     714.1932     424.0507   1419.37439     714.1932     424.0507
   1419.35913     713.7758     424.3609   1419.35913     713.7758     424.3609
   1419.34387     713.6846     424.8869   1419.34387     713.6846     424.8869
   1419.32861     715.5899     424.4157   1419.32861     715.5899     424.4157
   1419.31335     714.9546     424.2141   1419.31335     714.9546     424.2141
   1419.29810     715.5787     423.6220   1419.29810     715.5787     423.6220
   1419.28284     715.3118     423.9015   1419.28284     715.3118     423.9015
   1419.26758     716.4828     425.3849   1419.26758     716.4828     425.3849
   1419.25232     715.9465     424.6200   1419.25232     715.9465     424.6200
   1419.23706     717.5630     424.1739   1419.23706     717.5630     424.1739
   1419.22180     718.3611     424.8166   1419.22180     718.3611     424.8166
   1419.20654     719.0914     424.6597   1419.20654     719.0914     424.6597
   1419.19128     720.2283     424.4639   1419.19128     720.2283     424.4639
   1419.17603     718.8694     424.7117   1419.17603     718.8694     424.7117
   1419.16077     719.6671     425.0142   1419.16077     719.6671     425.0142
   1419.14551     720.3312     425.3714   1419.14551     720.3312     425.3714
   1419.13025     721.3627     426.1439   1419.13025     721.3627     426.1439
   1419.11499     720.8660     426.2923   1419.11499     720.8660     426.2923
   1419.09973     721.7792     425.7394   1419.09973     721.7792     425.7394
   1419.08447     723.6083     426.2014   1419.08447     723.6083     426.2014
   1419.06921     724.4197     425.6402   1419.06921     724.4197     425.6402
   1419.05396     724.2652     426.6891   1419.05396     724.2652     426.6891
   1419.03870     723.9951     426.5388   1419.03870     723.9951     426.5388
   1419.02344     724.8545     427.3852   1419.02344     724.8545     427.3852
   1419.00818     725.8960     427.5581   1419.00818     725.8960     427.5581
   1418.99292     726.7988     427.6071   1418.99292     726.7988     427.6071
   1418.97766     726.6673     428.4200   1418.97766     726.6673     428.4200
   1418.96240     727.2457     429.1552   1418.96240     727.2457     429.1552
   1418.94714     727.8144     429.1232   1418.94714     727.8144     429.1232
   1418.93188     728.3307     429.4695   1418.93188     728.3307     429.4695
   1418.91663     730.1506     429.5484   1418.91663     730.1506     429.5484
   1418.90137     730.6478     429.9232   1418.90137     730.6478     429.9232
   1418.88611     730.0551     430.2544   1418.88611     730.0551     430.2544
   1418.87085     731.0724     431.1427   1418.87085     731.0724     431.1427
   1418.85559     730.4141     431.3974   1418.85559     730.4141     431.3974
   1418.84033     732.1154     432.0922   1418.84033     732.1154     432.0922
   1418.82507     732.5649     431.8595   1418.82507     732.5649     431.8595
   1418.80981     734.2662     432.1760   1418.80981     734.2662     432.1760
   1418.79456     734.7516     433.0279   1418.79456     734.7516     433.0279
   1418.77930     735.4739     433.7964   1418.77930     735.4739     433.7964
   1418.76404     736.0027     434.0325   1418.76404     736.0027     434.0325
   1418.74878     736.2146     434.6083   1418.74878     736.2146     434.6083
   1418.73352     737.1273     435.0766   1418.73352     737.1273     435.0766
   1418.71826     738.8438     436.0667   1418.71826     738.8438     436.0667
   1418.70300     738.6789     436.3902   1418.70300     738.6789     436.3902
   1418.68774     740.4833     436.3409   1418.68774     740.4833     436.3409
   1418.67249     740.7444     438.1908   1418.67249     740.7444     438.1908
   1418.65723     741.5477     437.5516   1418.65723     741.5477     437.5516
   1418.64197     742.9034     438.5117   1418.64197     742.9034     438.5117
   1418.62671     741.8693     438.8918   1418.62671     741.8693     438.8918
   1418.61145     744.6529     439.5724   1418.61145     744.6529     439.5724
   1418.59619     744.3636     440.0813   1418.59619     744.3636     440.0813
   1418.58093     745.7233     440.4316   1418.58093     745.7233     440.4316
   1418.56567     745.7756     441.6203   1418.56567     745.7756     441.6203
   1418.55042     746.3937     442.8918   1418.55042     746.3937     442.8918
   1418.53516     746.6682     443.7570   1418.53516     746.6682     443.7570
   1418.51990     748.8602     443.2103   1418.51990     748.8602     443.2103
   1418.50464     748.4564     443.7943   1418.50464     748.4564     443.7943
   1418.48938     749.8682     445.7241   1418.48938     749.8682     445.7241
   1418.47412     751.0693     445.5923   1418.47412     751.0693     445.5923
   1418.45886     750.9186     445.9898   1418.45886     750.9186     445.9898
   1418.44360     752.2183     448.1683   1418.44360     752.2183     448.1683
   1418.42834     752.7846     447.6976   1418.42834     752.7846     447.6976
   1418.41309     754.5631     448.4171   1418.41309     754.5631     448.4171
   1418.39783     755.0850     448.7453   1418.39783     755.0850     448.7453
   1418.38257     754.4326     450.1218   1418.38257     754.4326     450.1218
   1418.36731     757.2379     450.2053   1418.36731     757.2379     450.2053
   1418.35205     758.4749     451.7493   1418.35205     758.4749     451.7493
   1418.33679     758.8676     451.8109   1418.33679     758.8676     451.8109
   1418.32153     759.0253     453.1775   1418.32153     759.0253     453.1775
   1418.30627     759.0845     453.6430   1418.30627     759.0845     453.6430
   1418.29102     760.2759     454.7308   1418.29102     760.2759     454.7308
   1418.27576     760.7234     455.2522   1418.27576     760.7234     455.2522
   1418.26050     762.5339     456.7003   1418.26050     762.5339     456.7003
   1418.24524     763.6906     456.6440   1418.24524     763.6906     456.6440
   1418.22998     764.2751     458.2280   1418.22998     764.2751     458.2280
   1418.21472     766.3703     458.9168   1418.21472     766.3703     458.9168
   1418.19946     767.4852     459.5288   1418.19946     767.4852     459.5288
   1418.18420     766.6455     461.0788   1418.18420     766.6455     461.0788
   1418.16895     769.1747     461.3460   1418.16895     769.1747     461.3460
   1418.15369     769.3074     462.4592   1418.15369     769.3074     462.4592
   1418.13843     770.3190     463.2039   1418.13843     770.3190     463.2039
   1418.12317     771.2834     464.0089   1418.12317     771.2834     464.0089
   1418.10791     772.1314     465.2958   1418.10791     772.1314     465.2958
   1418.09265     774.0567     465.8401   1418.09265     774.0567     465.8401
   1418.07739     774.3458     467.3312   1418.07739     774.3458     467.3312
   1418.06213     775.3119     468.2904   1418.06213     775.3119     468.2904
   1418.04688     775.9493     469.0305   1418.04688     775.9493     469.0305
   1418.03162     777.2597     469.2902   1418.03162     777.2597     469.2902
   1418.01636     778.2432     471.0618   1418.01636     778.2432     471.0618
   1418.00110     779.3287     472.1137   1418.00110     779.3287     472.1137
   1417.98584     780.7379     472.1275   1417.98584     780.7379     472.1275
   1417.97058     780.6437     474.2950   1417.97058     780.6437     474.2950
   1417.95532     782.3859     475.1992   1417.95532     782.3859     475.1992
   1417.94006     783.4984     475.7749   1417.94006     783.4984     475.7749
   1417.92480     783.5845     476.4519   1417.92480     783.5845     476.4519
   1417.90955     784.7505     478.1873   1417.90955     784.7505     478.1873
   1417.89429     786.2275     478.7953   1417.89429     786.2275     478.7953
   1417.87903     787.9799     480.0451   1417.87903     787.9799     480.0451
   1417.86377     789.5115     480.2175   1417.86377     789.5115     480.2175
   1417.84851     789.2018     481.7834   1417.84851     789.2018     481.7834
   1417.83325     789.7870     482.6545   1417.83325     789.7870     482.6545
   1417.81799     792.4803     483.3434   1417.81799     792.4803     483.3434
   1417.80273     792.3022     484.9508   1417.80273     792.3022     484.9508
   1417.78748     793.0923     484.9209   1417.78748     793.0923     484.9209
   1417.77222     795.0773     485.8859   1417.77222     795.0773     485.8859
   1417.75696     795.4212     487.1745   1417.75696     795.4212     487.1745
   1417.74170     795.2350     489.2878   1417.74170     795.2350     489.2878
   1417.72644     797.8411     489.2643   1417.72644     797.8411     489.2643
   1417.71118     798.7623     490.5511   1417.71118     798.7623     490.5511
   1417.69592     798.9158     492.1743   1417.69592     798.9158     492.1743
   1417.68066     799.6758     492.3777   1417.68066     799.6758     492.3777
   1417.66541     801.7488     494.2255   1417.66541     801.7488     494.2255
   1417.65015     803.6180     494.7128   1417.65015     803.6180     494.7128
   1417.63489     802.7346     496.1393   1417.63489     802.7346     496.1393
   1417.61963     804.5833     496.9000   1417.61963     804.5833     496.9000
   1417.60437     806.3328     498.4880   1417.60437     806.3328     498.4880
   1417.58911     806.5072     498.7242   1417.58911     806.5072     498.7242
   1417.57385     807.6689     499.6399   1417.57385     807.6689     499.6399
   1417.55859     808.5608     501.5114   1417.55859     808.5608     501.5114
   1417.54333     807.3788     502.0625   1417.54333     807.3788     502.0625
   1417.52808     809.6035     503.3427   1417.52808     809.6035     503.3427
   1417.51282     810.5129     503.8549   1417.51282     810.5129     503.8549
   1417.49756     811.9948     505.4641   1417.49756     811.9948     505.4641
   1417.48230     814.2390     505.7803   1417.48230     814.2390     505.7803
   1417.46704     813.7393     507.0935   1417.46704     813.7393     507.0935
   1417.45178     815.4184     508.7709   1417.45178     815.4184     508.7709
   1417.43652     815.7255     508.7523   1417.43652     815.7255     508.7523
   1417.42126     816.9694     510.6556   1417.42126     816.9694     510.6556
   1417.40601     816.8016     510.4392   1417.40601     816.8016     510.4392
   1417.39075     817.7434     512.3703   1417.39075     817.7434     512.3703
   1417.37549     820.6044     514.3518   1417.37549     820.6044     514.3518
   1417.36023     819.8059     514.3903   1417.36023     819.8059     514.3903
   1417.34497     821.1069     515.3276   1417.34497     821.1069     515.3276
   1417.32971     822.3616     515.5797   1417.32971     822.3616     515.5797
   1417.31445     823.2120     516.9356   1417.31445     823.2120     516.9356
   1417.29919     823.8761     517.6503   1417.29919     823.8761     517.6503
   1417.28394     825.0975     518.4547   1417.28394     825.0975     518.4547
   1417.26868     826.6948     519.0649   1417.26868     826.6948     519.0649
   1417.25342     826.0704     520.0647   1417.25342     826.0704     520.0647
   1417.23816     826.9289     520.8954   1417.23816     826.9289     520.8954
   1417.22290     828.6215     523.7496   1417.22290     828.6215     523.7496
   1417.20764     827.8730     523.1152   1417.20764     827.8730     523.1152
   1417.19238     828.9165     524.5739   1417.19238     828.9165     524.5739
   1417.17712     830.3066     524.7441   1417.17712     830.3066     524.7441
   1417.16187     830.6295     525.1010   1417.16187     830.6295     525.1010
   1417.14661     830.2253     526.4716   1417.14661     830.2253     526.4716
   1417.13135     832.5671     527.8864   1417.13135     832.5671     527.8864
   1417.11609     833.2637     529.1110   1417.11609     833.2637     529.1110
   1417.10083     834.5181     529.6259   1417.10083     834.5181     529.6259
   1417.08557     834.7669     529.3082   1417.08557     834.7669     529.3082
   1417.07031     836.1494     530.7715   1417.07031     836.1494     530.7715
   1417.05505     835.7580     531.0958   1417.05505     835.7580     531.0958
   1417.03979     836.8913     532.0345   1417.03979     836.8913     532.0345
   1417.02454     836.9998     532.6868   1417.02454     836.9998     532.6868
   1417.00928     837.6143     533.2829   1417.00928     837.6143     533.2829
   1416.99402     837.5893     534.4954   1416.99402     837.5893     534.4954
   1416.97876     839.3245     535.1442   1416.97876     839.3245     535.1442
   1416.96350     840.4301     535.7295   1416.96350     840.4301     535.7295
   1416.94824     840.5701     536.2291   1416.94824     840.5701     536.2291
   1416.93298     839.5742     536.4852   1416.93298     839.5742     536.4852
   1416.91772     841.3403     535.8624   1416.91772     841.3403     535.8624
   1416.90247     842.0672     537.4885   1416.90247     842.0672     537.4885
   1416.88721     841.6456     538.9860   1416.88721     841.6456     538.9860
   1416.87195     843.3131     539.1030   1416.87195     843.3131     539.1030
   1416.85669     842.8086     539.3821   1416.85669     842.8086     539.3821
   1416.84143     843.7050     539.8991   1416.84143     843.7050     539.8991
   1416.82617     845.0914     540.8066   1416.82617     845.0914     540.8066
   1416.81091     845.6512     540.7493   1416.81091     845.6512     540.7493
   1416.79565     844.4395     541.9197   1416.79565     844.4395     541.9197
   1416.78040     845.0592     541.6568   1416.78040     845.0592     541.6568
   1416.76514     845.7630     541.9105   1416.76514     845.7630     541.9105
   1416.74988     846.1943     542.2713   1416.74988     846.1943     542.2713
   1416.73462     847.6745     542.6044   1416.73462     847.6745     542.6044
   1416.71936     846.8970     543.2996   1416.71936     846.8970     543.2996
   1416.70410     847.0531     543.3680   1416.70410     847.0531     543.3680
   1416.68884     847.4489     543.2086   1416.68884     847.4489     543.2086
   1416.67358     846.8686     543.6009   1416.67358     846.8686     543.6009
   1416.65833     848.2321     542.9698   1416.65833     848.2321     542.9698
   1416.64307     847.5755     543.4008   1416.64307     847.5755     543.4008
   1416.62781     848.0631     542.9179   1416.62781     848.0631     542.9179
   1416.61255     847.0557     543.8552   1416.61255     847.0557     543.8552
   1416.59729     849.0770     544.1472   1416.59729     849.0770     544.1472
   1416.58203     849.7527     543.8295   1416.58203     849.7527     543.8295
   1416.56677     847.9927     544.7916   1416.56677     847.9927     544.7916
   1416.55151     849.5527     544.8198   1416.55151     849.5527     544.8198
   1416.53625     848.0375     544.9307   1416.53625     848.0375     544.9307
   1416.52100     849.5417     544.7949   1416.52100     849.5417     544.7949
   1416.50574     848.4911     544.7495   1416.50574     848.4911     544.7495
   1416.49048     847.5087     544.6747   1416.49048     847.5087     544.6747
   1416.47522     848.8075     543.6997   1416.47522     848.8075     543.6997
   1416.45996     848.4849     543.8006   1416.45996     848.4849     543.8006
   1416.44470     847.2418     543.7705   1416.44470     847.2418     543.7705
   1416.42944     847.9009     544.4286   1416.42944     847.9009     544.4286
   1416.41418     848.2043     544.1545   1416.41418     848.2043     544.1545
   1416.39893     846.9996     543.7894   1416.39893     846.9996     543.7894
   1416.38367     847.6105     543.1270   1416.38367     847.6105     543.1270
   1416.36841     847.3469     542.2261   1416.36841     847.3469     542.2261
   1416.35315     847.6718     542.0726   1416.35315     847.6718     542.0726
   1416.33789     848.2385     542.2154   1416.33789     848.2385     542.2154
   1416.32263     847.4656     542.1824   1416.32263     847.4656     542.1824
   1416.30737     846.9600     542.1017   1416.30737     846.9600     542.1017
   1416.29211     847.2950     541.9897   1416.29211     847.2950     541.9897
   1416.27686     845.8419     540.8514   1416.27686     845.8419     540.8514
   1416.26160     848.3027     540.4828   1416.26160     848.3027     540.4828
   1416.24634     846.1129     539.6591   1416.24634     846.1129     539.6591
   1416.23108     846.1331     539.4821   1416.23108     846.1331     539.4821
   1416.21582     846.8746     539.1497   1416.21582     846.8746     539.1497
   1416.20056     844.3024     538.5759   1416.20056     844.3024     538.5759
   1416.18530     846.4143     538.5337   1416.18530     846.4143     538.5337
   1416.17004     844.6208     538.4055   1416.17004     844.6208     538.4055
   1416.15479     842.6478     538.1229   1416.15479     842.6478     538.1229
   1416.13953     843.0331     537.3659   1416.13953     843.0331     537.3659
   1416.12427     842.7264     537.0892   1416.12427     842.7264     537.0892
   1416.10901     841.6308     536.0665   1416.10901     841.6308     536.0665
   1416.09375     841.3217     535.0555   1416.09375     841.3217     535.0555
   1416.07849     841.5717     534.8147   1416.07849     841.5717     534.8147
   1416.06323     841.4670     534.6392   1416.06323     841.4670     534.6392
   1416.04797     841.2864     534.1164   1416.04797     841.2864     534.1164
   1416.03271     839.1523     533.2411   1416.03271     839.1523     533.2411
   1416.01746     840.1221     532.6176   1416.01746     840.1221     532.6176
   1416.00220     838.5385     531.5792   1416.00220     838.5385     531.5792
   1415.98694     838.6448     532.0391   1415.98694     838.6448     532.0391
   1415.97168     838.6199     531.2661   1415.97168     838.6199     531.2661
   1415.95642     837.3629     530.0146   1415.95642     837.3629     530.0146
   1415.94116     837.3861     529.4272   1415.94116     837.3861     529.4272
   1415.92590     835.4091     529.9622   1415.92590     835.4091     529.9622
   1415.91064     835.3489     528.3649   1415.91064     835.3489     528.3649
   1415.89539     833.4631     527.8207   1415.89539     833.4631     527.8207
   1415.88013     834.1068     527.7494   1415.88013     834.1068     527.7494
   1415.86487     832.6657     527.1356   1415.86487     832.6657     527.1356
   1415.84961     831.4017     526.3220   1415.84961     831.4017     526.3220
   1415.83435     831.9538     525.6458   1415.83435     831.9538     525.6458
   1415.81909     830.8079     524.5670   1415.81909     830.8079     524.5670
   1415.80383     829.8528     524.1376   1415.80383     829.8528     524.1376
   1415.78857     829.7217     523.3732   1415.78857     829.7217     523.3732
   1415.77332     829.1818     523.2204   1415.77332     829.1818     523.2204
   1415.75806     829.6544     522.4749   1415.75806     829.6544     522.4749
   1415.74280     825.1861     520.8759   1415.74280     825.1861     520.8759
   1415.72754     827.4242     520.6965   1415.72754     827.4242     520.6965
   1415.71228     824.2766     519.3315   1415.71228     824.2766     519.3315
   1415.69702     824.6127     519.0060   1415.69702     824.6127     519.0060
   1415.68176     823.6312     517.9391   1415.68176     823.6312     517.9391
   1415.66650     821.9938     518.3051   1415.66650     821.9938     518.3051
   1415.65125     822.3314     516.8699   1415.65125     822.3314     516.8699
   1415.63599     822.6096     516.7026   1415.63599     822.6096     516.7026
   1415.62073     820.2864     514.8330   1415.62073     820.2864     514.8330
   1415.60547     819.2364     515.1954   1415.60547     819.2364     515.1954
   1415.59021     817.7183     513.3380   1415.59021     817.7183     513.3380
   1415.57495     816.7989     513.2778   1415.57495     816.7989     513.2778
   1415.55969     816.5648     512.6600   1415.55969     816.5648     512.6600
   1415.54443     815.3349     512.4812   1415.54443     815.3349     512.4812
   1415.52917     815.0621     511.8794   1415.52917     815.0621     511.8794
   1415.51392     812.8955     510.8109   1415.51392     812.8955     510.8109
   1415.49866     813.6821     509.5408   1415.49866     813.6821     509.5408
   1415.48340     809.7564     508.3834   1415.48340     809.7564     508.3834
   1415.46814     809.6094     508.3496   1415.46814     809.6094     508.3496
   1415.45288     809.5414     507.8102   1415.45288     809.5414     507.8102
   1415.43762     808.5009     506.7607   1415.43762     808.5009     506.7607
   1415.42236     807.3612     506.4429   1415.42236     807.3612     506.4429
   1415.40710     806.6283     505.5075   1415.40710     806.6283     505.5075
   1415.39185     804.0203     503.9886   1415.39185     804.0203     503.9886
   1415.37659     803.5560     503.5588   1415.37659     803.5560     503.5588
   1415.36133     802.2994     502.5444   1415.36133     802.2994     502.5444
   1415.34607     802.1529     501.5728   1415.34607     802.1529     501.5728
   1415.33081     800.7132     500.5592   1415.33081     800.7132     500.5592
   1415.31555     799.3198     499.7047   1415.31555     799.3198     499.7047
   1415.30029     798.6133     499.5312   1415.30029     798.6133     499.5312
   1415.28503     795.1871     498.2451   1415.28503     795.1871     498.2451
   1415.26978     795.8309     498.1644   1415.26978     795.8309     498.1644
   1415.25452     793.0545     496.9988   1415.25452     793.0545     496.9988
   1415.23926     792.3470     496.6970   1415.23926     792.3470     496.6970
   1415.22400     790.5898     495.1747   1415.22400     790.5898     495.1747
   1415.20874     788.2791     493.6849   1415.20874     788.2791     493.6849
   1415.19348     787.9843     492.8422   1415.19348     787.9843     492.8422
   1415.17822     786.8646     493.3783   1415.17822     786.8646     493.3783
   1415.16296     784.5528     491.4705   1415.16296     784.5528     491.4705
   1415.14771     783.1161     491.0710   1415.14771     783.1161     491.0710
   1415.13245     782.1835     489.1142   1415.13245     782.1835     489.1142
   1415.11719     780.3372     489.0473   1415.11719     780.3372     489.0473
   1415.10193     778.5594     488.5178   1415.10193     778.5594     488.5178
   1415.08667     777.5705     487.5299   1415.08667     777.5705     487.5299
   1415.07141     776.2036     486.5241   1415.07141     776.2036     486.5241
   1415.05615     774.8623     485.6797   1415.05615     774.8623     485.6797
   1415.04089     772.3713     484.2372   1415.04089     772.3713     484.2372
   1415.02563     771.4456     483.0033   1415.02563     771.4456     483.0033
   1415.01038     767.5456     482.9673   1415.01038     767.5456     482.9673
   1414.99512     767.7037     481.2122   1414.99512     767.7037     481.2122
   1414.97986     766.1562     480.4605   1414.97986     766.1562     480.4605
   1414.96460     764.3286     479.6448   1414.96460     764.3286     479.6448
   1414.94934     761.8246     479.0179   1414.94934     761.8246     479.0179
   1414.93408     759.3210     477.2830   1414.93408     759.3210     477.2830
   1414.91882     758.0193     476.5822   1414.91882     758.0193     476.5822
   1414.90356     755.9823     475.7125   1414.90356     755.9823     475.7125
   1414.88831     754.7056     474.1431   1414.88831     754.7056     474.1431
   1414.87305     752.7735     472.9815   1414.87305     752.7735     472.9815
   1414.85779     751.1691     472.1181   1414.85779     751.1691     472.1181
   1414.84253     749.8459     470.7188   1414.84253     749.8459     470.7188
   1414.82727     746.6881     469.3193   1414.82727     746.6881     469.3193
   1414.81201     745.6633     468.6852   1414.81201     745.6633     468.6852
   1414.79675     744.2249     467.6783   1414.79675     744.2249     467.6783
   1414.78149     741.0673     466.2960   1414.78149     741.0673     466.2960
   1414.76624     739.2294     464.8227   1414.76624     739.2294     464.8227
   1414.75098     737.1702     464.4598   1414.75098     737.1702     464.4598
   1414.73572     735.4523     463.2675   1414.73572     735.4523     463.2675
   1414.72046     733.2490     461.8362   1414.72046     733.2490     461.8362
   1414.70520     732.2972     460.8724   1414.70520     732.2972     460.8724
   1414.68994     728.3339     459.5787   1414.68994     728.3339     459.5787
   1414.67468     725.4893     459.2708   1414.67468     725.4893     459.2708
   1414.65942     725.3741     457.1362   1414.65942     725.3741     457.1362
   1414.64417     723.0595     455.8837   1414.64417     723.0595     455.8837
   1414.62891     720.6188     455.6795   1414.62891     720.6188     455.6795
   1414.61365     717.9114     454.0540   1414.61365     717.9114     454.0540
   1414.59839     714.6865     452.4215   1414.59839     714.6865     452.4215
   1414.58313     715.3257     451.6162   1414.58313     715.3257     451.6162
   1414.56787     711.6268     450.8263   1414.56787     711.6268     450.8263
   1414.55261     708.4750     448.2050   1414.55261     708.4750     448.2050
   1414.53735     705.0792     447.7393   1414.53735     705.0792     447.7393
   1414.52209     704.3099     446.0843   1414.52209     704.3099     446.0843
   1414.50684     700.7204     445.0340   1414.50684     700.7204     445.0340
   1414.49158     699.3572     443.4056   1414.49158     699.3572     443.4056
   1414.47632     697.6673     442.1794   1414.47632     697.6673     442.1794
   1414.46106     694.1808     440.8452   1414.46106     694.1808     440.8452
   1414.44580     692.8984     440.0520   1414.44580     692.8984     440.0520
   1414.43054     689.1979     438.2573   1414.43054     689.1979     438.2573
   1414.41528     687.6807     436.3755   1414.41528     687.6807     436.3755
   1414.40002     683.4840     436.2238   1414.40002     683.4840     436.2238
   1414.38477     680.6528     434.1351   1414.38477     680.6528     434.1351
   1414.36951     678.9696     432.9435   1414.36951     678.9696     432.9435
   1414.35425     676.0752     430.9536   1414.35425     676.0752     430.9536
   1414.33899     673.9630     429.1374   1414.33899     673.9630     429.1374
   1414.32373     671.6224     428.0299   1414.32373     671.6224     428.0299
   1414.30847     668.9436     427.0032   1414.30847     668.9436     427.0032
   1414.29321     665.5078     425.7629   1414.29321     665.5078     425.7629
   1414.27795     663.0410     424.4989   1414.27795     663.0410     424.4989
   1414.26270     660.1870     423.0424   1414.26270     660.1870     423.0424
   1414.24744     658.6236     421.7511   1414.24744     658.6236     421.7511
   1414.23218     655.1786     420.5709   1414.23218     655.1786     420.5709
   1414.21692     652.7435     418.4374   1414.21692     652.7435     418.4374
   1414.20166     649.3405     417.2273   1414.20166     649.3405     417.2273
   1414.18640     646.7805     414.8574   1414.18640     646.7805     414.8574
   1414.17114     643.4235     413.9346   1414.17114     643.4235     413.9346
   1414.15588     641.8421     412.0724   1414.15588     641.8421     412.0724
   1414.14062     637.1226     409.9274   1414.14062     637.1226     409.9274
   1414.12537     635.3371     409.1778   1414.12537     635.3371     409.1778
   1414.11011     632.6686     407.6884   1414.11011     632.6686     407.6884
   1414.09485     628.5375     405.7435   1414.09485     628.5375     405.7435
   1414.07959     626.6169     405.0092   1414.07959     626.6169     405.0092
   1414.06433     623.3301     403.2096   1414.06433     623.3301     403.2096
   1414.04907     621.3768     401.5049   1414.04907     621.3768     401.5049
   1414.03381     617.7460     400.2885   1414.03381     617.7460     400.2885
   1414.01855     615.4650     398.6633   1414.01855     615.4650     398.6633
   1414.00330     635.4850     405.6293   1414.00330     635.4850     405.6293
   1413.98804     609.8975     395.8831   1413.98804     609.8975     395.8831
   1413.97278     606.0902     393.9863   1413.97278     606.0902     393.9863
   1413.95752     602.5519     392.1846   1413.95752     602.5519     392.1846
   1413.94226     599.9014     390.4865   1413.94226     599.9014     390.4865
   1413.92700     596.1528     389.0694   1413.92700     596.1528     389.0694
   1413.91174     594.3608     387.8132   1413.91174     594.3608     387.8132
   1413.89648     590.2255     386.3322   1413.89648     590.2255     386.3322
   1413.88123     587.2964     384.8737   1413.88123     587.2964     384.8737
   1413.86597     584.7939     382.8450   1413.86597     584.7939     382.8450
   1413.85071     581.3199     380.9002   1413.85071     581.3199     380.9002
   1413.83545     578.2388     379.1792   1413.83545     578.2388     379.1792
   1413.82019     575.4615     377.7743   1413.82019     575.4615     377.7743
   1413.80493     572.7579     375.8258   1413.80493     572.7579     375.8258
   1413.78967     569.6488     374.4700   1413.78967     569.6488     374.4700
   1413.77441     566.1598     372.5891   1413.77441     566.1598     372.5891
   1413.75916     563.9134     370.9155   1413.75916     563.9134     370.9155
   1413.74390     560.5381     369.8317   1413.74390     560.5381     369.8317
   1413.72864     557.5588     368.4348   1413.72864     557.5588     368.4348
   1413.71338     553.8190     366.5732   1413.71338     553.8190     366.5732
   1413.69812     551.3524     364.9785   1413.69812     551.3524     364.9785
   1413.68286     548.3501     363.3632   1413.68286     548.3501     363.3632
   1413.66760     544.9570     361.6668   1413.66760     544.9570     361.6668
   1413.65234     541.9423     360.0768   1413.65234     541.9423     360.0768
   1413.63708     538.7980     358.2669   1413.63708     538.7980     358.2669
   1413.62183     535.0489     356.5809   1413.62183     535.0489     356.5809
   1413.60657     532.7013     355.1414   1413.60657     532.7013     355.1414
   1413.59131     529.8781     353.9755   1413.59131     529.8781     353.9755
   1413.57605     526.8444     352.3241   1413.57605     526.8444     352.3241
   1413.56079     524.1010     350.6529   1413.56079     524.1010     350.6529
   1413.54553     521.0959     349.2635   1413.54553     521.0959     349.2635
   1413.53027     517.6196     347.3189   1413.53027     517.6196     347.3189
   1413.51501     514.5059     346.2036   1413.51501     514.5059     346.2036
   1413.49976     511.5113     344.0390   1413.49976     511.5113     344.0390
   1413.48450     509.6606     342.8096   1413.48450     509.6606     342.8096
   1413.46924     505.0609     340.8581   1413.46924     505.0609     340.8581
   1413.45398     502.7062     339.8858   1413.45398     502.7062     339.8858
   1413.43872     499.2494     337.8439   1413.43872     499.2494     337.8439
   1413.42346     496.4209     336.6055   1413.42346     496.4209     336.6055
   1413.40820     493.5185     334.8491   1413.40820     493.5185     334.8491
   1413.39294     490.9721     333.0431   1413.39294     490.9721     333.0431
   1413.37769     488.2974     331.8824   1413.37769     488.2974     331.8824
   1413.36243     485.7848     330.5889   1413.36243     485.7848     330.5889
   1413.34717     482.3863     328.8548   1413.34717     482.3863     328.8548
   1413.33191     479.4062     327.3522   1413.33191     479.4062     327.3522
   1413.31665     476.7031     325.9475   1413.31665     476.7031     325.9475
   1413.30139     473.4468     324.3015   1413.30139     473.4468     324.3015
   1413.28613     471.0333     323.4288   1413.28613     471.0333     323.4288
   1413.27087     468.2747     321.7774   1413.27087     468.2747     321.7774
   1413.25562     466.3902     320.3627   1413.25562     466.3902     320.3627
   1413.24036     463.2284     318.7730   1413.24036     463.2284     318.7730
   1413.22510     460.5234     317.9081   1413.22510     460.5234     317.9081
   1413.20984     457.6183     316.2998   1413.20984     457.6183     316.2998
   1413.19458     455.3148     314.9542   1413.19458     455.3148     314.9542
   1413.17932     452.7522     313.7354   1413.17932     452.7522     313.7354
   1413.16406     449.9683     311.9794   1413.16406     449.9683     311.9794
   1413.14880     447.2904     310.9437   1413.14880     447.2904     310.9437
   1413.13354     445.4095     310.0457   1413.13354     445.4095     310.0457
   1413.11829     442.8924     308.5044   1413.11829     442.8924     308.5044
   1413.10303     441.0995     307.3690   1413.10303     441.0995     307.3690
   1413.08777     437.5335     305.9667   1413.08777     437.5335     305.9667
   1413.07251     434.8506     305.3708   1413.07251     434.8506     305.3708
   1413.05725     432.9376     303.8702   1413.05725     432.9376     303.8702
   1413.04199     430.6685     302.9024   1413.04199     430.6685     302.9024
   1413.02673     428.8351     301.8951   1413.02673     428.8351     301.8951
   1413.01147     426.5939     300.6124   1413.01147     426.5939     300.6124
   1412.99622     424.1066     299.4511   1412.99622     424.1066     299.4511
   1412.98096     422.2461     298.7222   1412.98096     422.2461     298.7222
   1412.96570     419.6824     297.5147   1412.96570     419.6824     297.5147
   1412.95044     418.5560     296.5381   1412.95044     418.5560     296.5381
   1412.93518     416.3166     295.4309   1412.93518     416.3166     295.4309
   1412.91992     413.9958     294.5775   1412.91992     413.9958     294.5775
   1412.90466     412.5668     293.7584   1412.90466     412.5668     293.7584
   1412.88940     410.3442     293.3148   1412.88940     410.3442     293.3148
   1412.87415     408.5488     292.1394   1412.87415     408.5488     292.1394
   1412.85889     406.9045     291.0663   1412.85889     406.9045     291.0663
   1412.84363     405.1082     290.4018   1412.84363     405.1082     290.4018
   1412.82837     403.2742     290.2578   1412.82837     403.2742     290.2578
   1412.81311     401.9492     289.0470   1412.81311     401.9492     289.0470
   1412.79785     400.1997     287.6867   1412.79785     400.1997     287.6867
   1412.78259     398.4578     287.7661   1412.78259     398.4578     287.7661
   1412.76733     397.0818     287.0228   1412.76733     397.0818     287.0228
   1412.75208     395.6734     286.3125   1412.75208     395.6734     286.3125
   1412.73682     394.1466     285.7532   1412.73682     394.1466     285.7532
   1412.72156     392.1132     284.8318   1412.72156     392.1132     284.8318
   1412.70630     390.5363     284.4027   1412.70630     390.5363     284.4027
   1412.69104     390.1794     284.2289   1412.69104     390.1794     284.2289
   1412.67578     388.8324     283.8521   1412.67578     388.8324     283.8521
   1412.66052     387.8924     283.4758   1412.66052     387.8924     283.4758
   1412.64526     387.0621     282.6638   1412.64526     387.0621     282.6638
   1412.63000     385.7529     282.6897   1412.63000     385.7529     282.6897
   1412.61475     384.1819     282.1995   1412.61475     384.1819     282.1995
   1412.59949     383.8630     282.3672   1412.59949     383.8630     282.3672
   1412.58423     383.0398     282.1079   1412.58423     383.0398     282.1079
   1412.56897     382.2397     281.8357   1412.56897     382.2397     281.8357
   1412.55371     380.8552     281.7020   1412.55371     380.8552     281.7020
   1412.53845     380.1340     281.2610   1412.53845     380.1340     281.2610
   1412.52319     379.6105     281.6382   1412.52319     379.6105     281.6382
   1412.50793     380.0608     281.8322   1412.50793     380.0608     281.8322
   1412.49268     379.0230     281.7475   1412.49268     379.0230     281.7475
   1412.47742     378.0254     280.8200   1412.47742     378.0254     280.8200
   1412.46216     377.9757     281.2992   1412.46216     377.9757     281.2992
   1412.44690     377.7777     281.4178   1412.44690     377.7777     281.4178
   1412.43164     377.2315     281.5945   1412.43164     377.2315     281.5945
   1412.41638     377.0534     282.1715   1412.41638     377.0534     282.1715
   1412.40112     376.7404     282.5204   1412.40112     376.7404     282.5204
   1412.38586     377.0793     282.6054   1412.38586     377.0793     282.6054
   1412.37061     376.8602     282.8786   1412.37061     376.8602     282.8786
   1412.35535     375.9264     283.1884   1412.35535     375.9264     283.1884
   1412.34009     376.3617     284.1148   1412.34009     376.3617     284.1148
   1412.32483     376.2755     284.1455   1412.32483     376.2755     284.1455
   1412.30957     376.7154     284.2364   1412.30957     376.7154     284.2364
   1412.29431     376.6278     284.8278   1412.29431     376.6278     284.8278
   1412.27905     377.3737     285.7222   1412.27905     377.3737     285.7222
   1412.26379     377.0534     285.9756   1412.26379     377.0534     285.9756
   1412.24854     377.6616     287.0417   1412.24854     377.6616     287.0417
   1412.23328     377.7221     287.3259   1412.23328     377.7221     287.3259
   1412.21802     378.6154     288.5811   1412.21802     378.6154     288.5811
   1412.20276     379.2975     289.2702   1412.20276     379.2975     289.2702