#     FILENAME=!Skynet_57528_lach-cc-244_20660_21030.cyb.fits
#     BASENAME=Skynet_57528_lach-cc-244_20660_21030
#     SRC_NAME=lach-cc-244
#     OBSERVER=ccmadison16_9505
#     DATE_OBS=2016-05-20T19:36:12.870
#        OBSID=20660
#      SCANNUM=21030
#          MJD=57528.8179
#          UTC=70662
#     SCANTYPE=track
#     DATAMODE=HIRES
#     TUNEFREQ=1420.0000
# Actual_FREQ1=1420.0000
# Actual_FREQ2=1420.0000
#    LO1Tuning=6870.000
#     RFFILTER=1355_1435
#        OBSBW=-15.6250
#        NCHAN=1024 
#        FOCUS=37.0709
#           RA=07:52:56.85
#          DEC=-27:20:21.89
#      RA(hrs)=7.882500
#     DEC(deg)=-27.339400
#    AZIM(deg)=155.663
#    ELEV(deg)=19.903
#     IFattens=11.00, 10.00
#      WARNING=None
#    TCAL_XL1=7.9635
#    TCAL_YR1=9.1340
#    TCAL_XL2=7.9635
#    TCAL_YR2=9.1340
#     TRX_XL1=11.7060
#     TRX_YR1=11.7060
#     TRX_XL2=11.7060
#     TRX_YR2=11.7060
#        TAVE=1.0000
#Freq1(MHz)          XL1          YR1  Freq2(MHz)          XL2          YR2 

   1427.81250     300.3812     243.3106   1427.81250     300.3812     243.3106
   1427.79724     300.7461     243.7350   1427.79724     300.7461     243.7350
   1427.78198     301.3333     243.8311   1427.78198     301.3333     243.8311
   1427.76672     302.0752     244.0665   1427.76672     302.0752     244.0665
   1427.75146     302.7487     244.6461   1427.75146     302.7487     244.6461
   1427.73621     303.7570     244.8547   1427.73621     303.7570     244.8547
   1427.72095     304.4755     245.4211   1427.72095     304.4755     245.4211
   1427.70569     304.7159     246.4125   1427.70569     304.7159     246.4125
   1427.69043     305.8441     246.8607   1427.69043     305.8441     246.8607
   1427.67517     306.4553     247.6947   1427.67517     306.4553     247.6947
   1427.65991     307.6096     248.5504   1427.65991     307.6096     248.5504
   1427.64465     308.5225     249.5188   1427.64465     308.5225     249.5188
   1427.62939     309.5126     249.8688   1427.62939     309.5126     249.8688
   1427.61414     310.3328     250.7382   1427.61414     310.3328     250.7382
   1427.59888     311.5243     251.4004   1427.59888     311.5243     251.4004
   1427.58362     312.1791     252.5140   1427.58362     312.1791     252.5140
   1427.56836     314.1606     253.3670   1427.56836     314.1606     253.3670
   1427.55310     315.0155     254.5089   1427.55310     315.0155     254.5089
   1427.53784     316.6106     255.3605   1427.53784     316.6106     255.3605
   1427.52258     317.8088     256.2707   1427.52258     317.8088     256.2707
   1427.50732     318.8707     257.1515   1427.50732     318.8707     257.1515
   1427.49207     320.3038     258.2017   1427.49207     320.3038     258.2017
   1427.47681     321.7588     259.5923   1427.47681     321.7588     259.5923
   1427.46155     324.1086     260.6906   1427.46155     324.1086     260.6906
   1427.44629     325.1087     261.6573   1427.44629     325.1087     261.6573
   1427.43103     326.1473     262.7632   1427.43103     326.1473     262.7632
   1427.41577     327.7183     264.3569   1427.41577     327.7183     264.3569
   1427.40051     329.0664     265.6577   1427.40051     329.0664     265.6577
   1427.38525     330.7223     266.7109   1427.38525     330.7223     266.7109
   1427.37000     332.4966     268.2979   1427.37000     332.4966     268.2979
   1427.35474     334.1175     269.1446   1427.35474     334.1175     269.1446
   1427.33948     335.7845     270.5773   1427.33948     335.7845     270.5773
   1427.32422     337.9384     272.3036   1427.32422     337.9384     272.3036
   1427.30896     338.7653     273.5732   1427.30896     338.7653     273.5732
   1427.29370     340.6083     274.3970   1427.29370     340.6083     274.3970
   1427.27844     343.4490     276.3625   1427.27844     343.4490     276.3625
   1427.26318     344.7849     278.0313   1427.26318     344.7849     278.0313
   1427.24792     347.0233     279.1524   1427.24792     347.0233     279.1524
   1427.23267     348.5243     280.9914   1427.23267     348.5243     280.9914
   1427.21741     350.0914     282.3078   1427.21741     350.0914     282.3078
   1427.20215     352.3862     283.9099   1427.20215     352.3862     283.9099
   1427.18689     354.0957     285.4905   1427.18689     354.0957     285.4905
   1427.17163     356.6351     287.1322   1427.17163     356.6351     287.1322
   1427.15637     358.4974     289.3603   1427.15637     358.4974     289.3603
   1427.14111     360.4861     290.7256   1427.14111     360.4861     290.7256
   1427.12585     362.0562     292.0726   1427.12585     362.0562     292.0726
   1427.11060     364.7418     293.8643   1427.11060     364.7418     293.8643
   1427.09534     367.2751     296.0531   1427.09534     367.2751     296.0531
   1427.08008     369.1800     297.6396   1427.08008     369.1800     297.6396
   1427.06482     371.3601     298.7650   1427.06482     371.3601     298.7650
   1427.04956     373.0058     300.9565   1427.04956     373.0058     300.9565
   1427.03430     375.5623     302.6532   1427.03430     375.5623     302.6532
   1427.01904     377.4040     304.3221   1427.01904     377.4040     304.3221
   1427.00378     380.0492     306.3743   1427.00378     380.0492     306.3743
   1426.98853     381.9643     308.5847   1426.98853     381.9643     308.5847
   1426.97327     385.0234     309.7079   1426.97327     385.0234     309.7079
   1426.95801     386.6300     311.8469   1426.95801     386.6300     311.8469
   1426.94275     389.6022     313.6488   1426.94275     389.6022     313.6488
   1426.92749     390.9749     315.7933   1426.92749     390.9749     315.7933
   1426.91223     393.8047     317.6390   1426.91223     393.8047     317.6390
   1426.89697     395.6774     318.9891   1426.89697     395.6774     318.9891
   1426.88171     398.9432     321.4199   1426.88171     398.9432     321.4199
   1426.86646     401.1195     323.6748   1426.86646     401.1195     323.6748
   1426.85120     402.9600     325.0706   1426.85120     402.9600     325.0706
   1426.83594     405.5564     327.4659   1426.83594     405.5564     327.4659
   1426.82068     407.8705     329.0490   1426.82068     407.8705     329.0490
   1426.80542     410.3305     330.8826   1426.80542     410.3305     330.8826
   1426.79016     412.5683     332.9407   1426.79016     412.5683     332.9407
   1426.77490     414.6403     335.2158   1426.77490     414.6403     335.2158
   1426.75964     417.6888     337.6024   1426.75964     417.6888     337.6024
   1426.74438     419.5603     339.6396   1426.74438     419.5603     339.6396
   1426.72913     422.3219     340.7409   1426.72913     422.3219     340.7409
   1426.71387     424.5093     343.2499   1426.71387     424.5093     343.2499
   1426.69861     426.4866     345.4841   1426.69861     426.4866     345.4841
   1426.68335     429.6528     347.5699   1426.68335     429.6528     347.5699
   1426.66809     431.6234     349.5454   1426.66809     431.6234     349.5454
   1426.65283     434.9572     351.6557   1426.65283     434.9572     351.6557
   1426.63757     437.1792     354.0018   1426.63757     437.1792     354.0018
   1426.62231     439.9796     358.1386   1426.62231     439.9796     358.1386
   1426.60706     442.5529     357.7891   1426.60706     442.5529     357.7891
   1426.59180     443.5978     360.4611   1426.59180     443.5978     360.4611
   1426.57654     445.7974     362.4161   1426.57654     445.7974     362.4161
   1426.56128     448.3350     364.5324   1426.56128     448.3350     364.5324
   1426.54602     451.3584     366.2812   1426.54602     451.3584     366.2812
   1426.53076     453.3708     368.6896   1426.53076     453.3708     368.6896
   1426.51550     456.0384     370.0135   1426.51550     456.0384     370.0135
   1426.50024     458.9844     372.5045   1426.50024     458.9844     372.5045
   1426.48499     460.6586     374.4018   1426.48499     460.6586     374.4018
   1426.46973     463.1599     376.8703   1426.46973     463.1599     376.8703
   1426.45447     465.6923     378.9873   1426.45447     465.6923     378.9873
   1426.43921     467.8412     381.2095   1426.43921     467.8412     381.2095
   1426.42395     470.0457     382.5330   1426.42395     470.0457     382.5330
   1426.40869     472.9217     384.5283   1426.40869     472.9217     384.5283
   1426.39343     474.3882     386.8948   1426.39343     474.3882     386.8948
   1426.37817     477.1501     388.4823   1426.37817     477.1501     388.4823
   1426.36292     479.2563     391.5220   1426.36292     479.2563     391.5220
   1426.34766     482.6639     393.9138   1426.34766     482.6639     393.9138
   1426.33240     483.8711     394.9532   1426.33240     483.8711     394.9532
   1426.31714     487.2377     397.8082   1426.31714     487.2377     397.8082
   1426.30188     488.7093     399.3512   1426.30188     488.7093     399.3512
   1426.28662     490.7845     401.0464   1426.28662     490.7845     401.0464
   1426.27136     492.9844     403.3693   1426.27136     492.9844     403.3693
   1426.25610     495.1721     405.3871   1426.25610     495.1721     405.3871
   1426.24084     497.6630     407.5233   1426.24084     497.6630     407.5233
   1426.22559     499.7006     409.2167   1426.22559     499.7006     409.2167
   1426.21033     502.2683     411.2443   1426.21033     502.2683     411.2443
   1426.19507     504.2044     413.3772   1426.19507     504.2044     413.3772
   1426.17981     505.8647     415.8175   1426.17981     505.8647     415.8175
   1426.16455     507.8257     417.8130   1426.16455     507.8257     417.8130
   1426.14929     510.2435     418.6602   1426.14929     510.2435     418.6602
   1426.13403     512.2142     420.7812   1426.13403     512.2142     420.7812
   1426.11877     515.0537     423.5139   1426.11877     515.0537     423.5139
   1426.10352     516.1165     425.2952   1426.10352     516.1165     425.2952
   1426.08826     518.0226     427.3002   1426.08826     518.0226     427.3002
   1426.07300     519.8472     429.1482   1426.07300     519.8472     429.1482
   1426.05774     523.4765     430.9711   1426.05774     523.4765     430.9711
   1426.04248     524.3800     433.1963   1426.04248     524.3800     433.1963
   1426.02722     526.5129     434.5596   1426.02722     526.5129     434.5596
   1426.01196     528.2025     436.4818   1426.01196     528.2025     436.4818
   1425.99670     530.1187     438.3133   1425.99670     530.1187     438.3133
   1425.98145     532.2960     440.2104   1425.98145     532.2960     440.2104
   1425.96619     533.3787     440.9541   1425.96619     533.3787     440.9541
   1425.95093     535.4291     443.6277   1425.95093     535.4291     443.6277
   1425.93567     537.5800     446.0876   1425.93567     537.5800     446.0876
   1425.92041     539.2250     447.6589   1425.92041     539.2250     447.6589
   1425.90515     540.1975     448.7904   1425.90515     540.1975     448.7904
   1425.88989     543.6128     451.5844   1425.88989     543.6128     451.5844
   1425.87463     544.7596     453.5411   1425.87463     544.7596     453.5411
   1425.85938     546.4641     454.5409   1425.85938     546.4641     454.5409
   1425.84412     548.2429     458.1474   1425.84412     548.2429     458.1474
   1425.82886     549.4982     458.1409   1425.82886     549.4982     458.1409
   1425.81360     551.3321     460.3411   1425.81360     551.3321     460.3411
   1425.79834     552.5842     461.9554   1425.79834     552.5842     461.9554
   1425.78308     554.0839     464.0889   1425.78308     554.0839     464.0889
   1425.76782     555.7198     465.2090   1425.76782     555.7198     465.2090
   1425.75256     558.0419     466.6504   1425.75256     558.0419     466.6504
   1425.73730     559.0809     469.0714   1425.73730     559.0809     469.0714
   1425.72205     560.5143     471.1729   1425.72205     560.5143     471.1729
   1425.70679     562.9047     472.1992   1425.70679     562.9047     472.1992
   1425.69153     562.6975     474.5905   1425.69153     562.6975     474.5905
   1425.67627     565.1324     475.1000   1425.67627     565.1324     475.1000
   1425.66101     566.1495     476.1141   1425.66101     566.1495     476.1141
   1425.64575     567.6234     478.8712   1425.64575     567.6234     478.8712
   1425.63049     568.3011     479.8350   1425.63049     568.3011     479.8350
   1425.61523     569.3282     481.1786   1425.61523     569.3282     481.1786
   1425.59998     570.9750     483.2455   1425.59998     570.9750     483.2455
   1425.58472     572.6873     484.6579   1425.58472     572.6873     484.6579
   1425.56946     573.0688     486.6834   1425.56946     573.0688     486.6834
   1425.55420     575.0728     487.9617   1425.55420     575.0728     487.9617
   1425.53894     575.8872     489.0591   1425.53894     575.8872     489.0591
   1425.52368     577.3956     491.0695   1425.52368     577.3956     491.0695
   1425.50842     578.4449     492.9576   1425.50842     578.4449     492.9576
   1425.49316     579.4726     493.4330   1425.49316     579.4726     493.4330
   1425.47791     579.6241     496.1102   1425.47791     579.6241     496.1102
   1425.46265     581.7040     497.0322   1425.46265     581.7040     497.0322
   1425.44739     583.4610     498.0869   1425.44739     583.4610     498.0869
   1425.43213     583.7971     500.1144   1425.43213     583.7971     500.1144
   1425.41687     586.6164     502.4942   1425.41687     586.6164     502.4942
   1425.40161     585.6342     503.1285   1425.40161     585.6342     503.1285
   1425.38635     586.8438     504.5006   1425.38635     586.8438     504.5006
   1425.37109     587.7987     505.2153   1425.37109     587.7987     505.2153
   1425.35583     589.4603     507.3206   1425.35583     589.4603     507.3206
   1425.34058     588.5208     508.9628   1425.34058     588.5208     508.9628
   1425.32532     590.5072     509.5220   1425.32532     590.5072     509.5220
   1425.31006     592.3387     511.4886   1425.31006     592.3387     511.4886
   1425.29480     592.5127     512.7119   1425.29480     592.5127     512.7119
   1425.27954     592.9360     513.8375   1425.27954     592.9360     513.8375
   1425.26428     593.6967     515.3140   1425.26428     593.6967     515.3140
   1425.24902     593.6649     516.8706   1425.24902     593.6649     516.8706
   1425.23376     594.7576     517.6158   1425.23376     594.7576     517.6158
   1425.21851     596.1051     518.8116   1425.21851     596.1051     518.8116
   1425.20325     595.9124     520.4493   1425.20325     595.9124     520.4493
   1425.18799     597.3265     521.5021   1425.18799     597.3265     521.5021
   1425.17273     598.0183     522.6944   1425.17273     598.0183     522.6944
   1425.15747     598.1759     524.3646   1425.15747     598.1759     524.3646
   1425.14221     599.7576     525.1044   1425.14221     599.7576     525.1044
   1425.12695     599.4641     526.3859   1425.12695     599.4641     526.3859
   1425.11169     600.3574     527.7929   1425.11169     600.3574     527.7929
   1425.09644     600.1586     528.6227   1425.09644     600.1586     528.6227
   1425.08118     600.8311     529.5352   1425.08118     600.8311     529.5352
   1425.06592     600.8481     530.7184   1425.06592     600.8481     530.7184
   1425.05066     602.8843     532.4652   1425.05066     602.8843     532.4652
   1425.03540     602.8261     533.2202   1425.03540     602.8261     533.2202
   1425.02014     603.3685     533.8617   1425.02014     603.3685     533.8617
   1425.00488     602.9626     535.7676   1425.00488     602.9626     535.7676
   1424.98962     604.3022     536.7617   1424.98962     604.3022     536.7617
   1424.97437     604.0798     537.2835   1424.97437     604.0798     537.2835
   1424.95911     605.0507     538.1313   1424.95911     605.0507     538.1313
   1424.94385     604.4645     539.6687   1424.94385     604.4645     539.6687
   1424.92859     605.7518     540.7737   1424.92859     605.7518     540.7737
   1424.91333     606.2468     541.8978   1424.91333     606.2468     541.8978
   1424.89807     605.8609     543.6454   1424.89807     605.8609     543.6454
   1424.88281     606.5640     543.0590   1424.88281     606.5640     543.0590
   1424.86755     606.8991     544.8452   1424.86755     606.8991     544.8452
   1424.85229     606.8864     543.9788   1424.85229     606.8864     543.9788
   1424.83704     607.1528     546.6740   1424.83704     607.1528     546.6740
   1424.82178     607.0886     548.5256   1424.82178     607.0886     548.5256
   1424.80652     607.0814     548.5813   1424.80652     607.0814     548.5813
   1424.79126     608.4443     549.8750   1424.79126     608.4443     549.8750
   1424.77600     607.8607     550.0487   1424.77600     607.8607     550.0487
   1424.76074     608.0007     551.1066   1424.76074     608.0007     551.1066
   1424.74548     608.5496     551.9730   1424.74548     608.5496     551.9730
   1424.73022     608.8937     553.3604   1424.73022     608.8937     553.3604
   1424.71497     608.8878     553.2670   1424.71497     608.8878     553.2670
   1424.69971     608.0646     553.6396   1424.69971     608.0646     553.6396
   1424.68445     609.2476     556.0954   1424.68445     609.2476     556.0954
   1424.66919     609.0974     555.5182   1424.66919     609.0974     555.5182
   1424.65393     608.4340     556.4746   1424.65393     608.4340     556.4746
   1424.63867     609.9024     557.7805   1424.63867     609.9024     557.7805
   1424.62341     609.0590     558.4733   1424.62341     609.0590     558.4733
   1424.60815     610.1516     559.5341   1424.60815     610.1516     559.5341
   1424.59290     610.1226     560.2551   1424.59290     610.1226     560.2551
   1424.57764     609.9113     559.6163   1424.57764     609.9113     559.6163
   1424.56238     610.5339     561.9017   1424.56238     610.5339     561.9017
   1424.54712     609.0989     561.6193   1424.54712     609.0989     561.6193
   1424.53186     609.9139     563.5048   1424.53186     609.9139     563.5048
   1424.51660     610.0416     564.1454   1424.51660     610.0416     564.1454
   1424.50134     610.2728     564.3315   1424.50134     610.2728     564.3315
   1424.48608     610.9069     564.4676   1424.48608     610.9069     564.4676
   1424.47083     609.5372     564.9503   1424.47083     609.5372     564.9503
   1424.45557     609.0409     565.8420   1424.45557     609.0409     565.8420
   1424.44031     610.0568     567.0317   1424.44031     610.0568     567.0317
   1424.42505     610.3481     567.6660   1424.42505     610.3481     567.6660
   1424.40979     610.0007     567.7582   1424.40979     610.0007     567.7582
   1424.39453     610.1436     569.4080   1424.39453     610.1436     569.4080
   1424.37927     611.0790     568.5653   1424.37927     611.0790     568.5653
   1424.36401     609.4327     569.7516   1424.36401     609.4327     569.7516
   1424.34875     609.7139     571.1501   1424.34875     609.7139     571.1501
   1424.33350     609.6478     570.6089   1424.33350     609.6478     570.6089
   1424.31824     609.9858     570.5189   1424.31824     609.9858     570.5189
   1424.30298     608.8745     572.7042   1424.30298     608.8745     572.7042
   1424.28772     609.4098     572.5880   1424.28772     609.4098     572.5880
   1424.27246     610.4432     573.2802   1424.27246     610.4432     573.2802
   1424.25720     609.6780     573.6406   1424.25720     609.6780     573.6406
   1424.24194     609.6110     574.6915   1424.24194     609.6110     574.6915
   1424.22668     609.3221     574.6550   1424.22668     609.3221     574.6550
   1424.21143     609.2725     575.1015   1424.21143     609.2725     575.1015
   1424.19617     609.5598     575.8173   1424.19617     609.5598     575.8173
   1424.18091     608.5918     575.5859   1424.18091     608.5918     575.5859
   1424.16565     608.2733     576.3311   1424.16565     608.2733     576.3311
   1424.15039     607.9703     576.2001   1424.15039     607.9703     576.2001
   1424.13513     608.4581     576.8040   1424.13513     608.4581     576.8040
   1424.11987     607.2559     576.5402   1424.11987     607.2559     576.5402
   1424.10461     608.0469     576.8766   1424.10461     608.0469     576.8766
   1424.08936     607.5468     577.2155   1424.08936     607.5468     577.2155
   1424.07410     608.3629     578.5546   1424.07410     608.3629     578.5546
   1424.05884     608.6058     578.6484   1424.05884     608.6058     578.6484
   1424.04358     607.5052     579.0161   1424.04358     607.5052     579.0161
   1424.02832     606.9783     579.1306   1424.02832     606.9783     579.1306
   1424.01306     607.4052     578.5315   1424.01306     607.4052     578.5315
   1423.99780     607.1420     580.5168   1423.99780     607.1420     580.5168
   1423.98254     606.1451     580.5257   1423.98254     606.1451     580.5257
   1423.96729     606.7454     579.8231   1423.96729     606.7454     579.8231
   1423.95203     607.2563     579.7922   1423.95203     607.2563     579.7922
   1423.93677     606.1678     581.0981   1423.93677     606.1678     581.0981
   1423.92151     607.0012     580.5533   1423.92151     607.0012     580.5533
   1423.90625     606.0425     581.0449   1423.90625     606.0425     581.0449
   1423.89099     606.7756     580.9376   1423.89099     606.7756     580.9376
   1423.87573     605.1699     581.0406   1423.87573     605.1699     581.0406
   1423.86047     604.7276     581.1940   1423.86047     604.7276     581.1940
   1423.84521     605.7654     582.3411   1423.84521     605.7654     582.3411
   1423.82996     605.8524     581.8250   1423.82996     605.8524     581.8250
   1423.81470     605.2913     582.2441   1423.81470     605.2913     582.2441
   1423.79944     604.8806     580.7646   1423.79944     604.8806     580.7646
   1423.78418     604.6882     582.2406   1423.78418     604.6882     582.2406
   1423.76892     604.6598     580.6052   1423.76892     604.6598     580.6052
   1423.75366     604.2791     581.6536   1423.75366     604.2791     581.6536
   1423.73840     604.8385     582.0825   1423.73840     604.8385     582.0825
   1423.72314     603.9895     582.6082   1423.72314     603.9895     582.6082
   1423.70789     603.3047     581.7053   1423.70789     603.3047     581.7053
   1423.69263     603.5657     581.0328   1423.69263     603.5657     581.0328
   1423.67737     603.8582     581.7134   1423.67737     603.8582     581.7134
   1423.66211     603.5173     581.4016   1423.66211     603.5173     581.4016
   1423.64685     603.3266     581.3224   1423.64685     603.3266     581.3224
   1423.63159     602.7708     581.5605   1423.63159     602.7708     581.5605
   1423.61633     603.3699     581.4041   1423.61633     603.3699     581.4041
   1423.60107     602.3459     580.1578   1423.60107     602.3459     580.1578
   1423.58582     602.1243     581.3890   1423.58582     602.1243     581.3890
   1423.57056     603.1543     580.0872   1423.57056     603.1543     580.0872
   1423.55530     602.6498     580.4222   1423.55530     602.6498     580.4222
   1423.54004     601.3336     580.4998   1423.54004     601.3336     580.4998
   1423.52478     601.3433     580.6966   1423.52478     601.3433     580.6966
   1423.50952     601.6232     579.9951   1423.50952     601.6232     579.9951
   1423.49426     601.7360     579.8055   1423.49426     601.7360     579.8055
   1423.47900     600.7708     579.9189   1423.47900     600.7708     579.9189
   1423.46375     600.4152     579.8756   1423.46375     600.4152     579.8756
   1423.44849     601.4972     579.3189   1423.44849     601.4972     579.3189
   1423.43323     600.0501     578.3145   1423.43323     600.0501     578.3145
   1423.41797     599.8082     578.1445   1423.41797     599.8082     578.1445
   1423.40271     599.1639     578.4297   1423.40271     599.1639     578.4297
   1423.38745     599.0096     578.2991   1423.38745     599.0096     578.2991
   1423.37219     600.3325     578.6656   1423.37219     600.3325     578.6656
   1423.35693     599.9662     577.2852   1423.35693     599.9662     577.2852
   1423.34167     599.5079     576.8472   1423.34167     599.5079     576.8472
   1423.32642     598.9711     575.5454   1423.32642     598.9711     575.5454
   1423.31116     598.5070     574.8963   1423.31116     598.5070     574.8963
   1423.29590     599.4286     575.1775   1423.29590     599.4286     575.1775
   1423.28064     598.1813     575.0883   1423.28064     598.1813     575.0883
   1423.26538     598.8521     573.5455   1423.26538     598.8521     573.5455
   1423.25012     598.6987     574.3254   1423.25012     598.6987     574.3254
   1423.23486     598.2580     573.1283   1423.23486     598.2580     573.1283
   1423.21960     597.8441     573.3970   1423.21960     597.8441     573.3970
   1423.20435     597.2515     572.0668   1423.20435     597.2515     572.0668
   1423.18909     597.6452     571.5806   1423.18909     597.6452     571.5806
   1423.17383     597.5665     571.2108   1423.17383     597.5665     571.2108
   1423.15857     597.2503     569.5146   1423.15857     597.2503     569.5146
   1423.14331     596.7441     570.2587   1423.14331     596.7441     570.2587
   1423.12805     596.4385     570.3304   1423.12805     596.4385     570.3304
   1423.11279     595.9895     568.1456   1423.11279     595.9895     568.1456
   1423.09753     596.0670     568.0817   1423.09753     596.0670     568.0817
   1423.08228     595.7064     567.9299   1423.08228     595.7064     567.9299
   1423.06702     595.2348     566.8083   1423.06702     595.2348     566.8083
   1423.05176     595.7041     566.1559   1423.05176     595.7041     566.1559
   1423.03650     594.2106     565.3603   1423.03650     594.2106     565.3603
   1423.02124     594.9259     563.7944   1423.02124     594.9259     563.7944
   1423.00598     595.7432     564.5808   1423.00598     595.7432     564.5808
   1422.99072     595.7385     563.1794   1422.99072     595.7385     563.1794
   1422.97546     594.2808     562.0080   1422.97546     594.2808     562.0080
   1422.96021     594.3936     561.4652   1422.96021     594.3936     561.4652
   1422.94495     594.3734     560.2635   1422.94495     594.3734     560.2635
   1422.92969     593.8862     559.8016   1422.92969     593.8862     559.8016
   1422.91443     593.7452     558.9988   1422.91443     593.7452     558.9988
   1422.89917     593.6371     558.7722   1422.89917     593.6371     558.7722
   1422.88391     593.4188     558.0081   1422.88391     593.4188     558.0081
   1422.86865     593.3241     557.5966   1422.86865     593.3241     557.5966
   1422.85339     592.9420     556.0747   1422.85339     592.9420     556.0747
   1422.83813     592.8835     555.1122   1422.83813     592.8835     555.1122
   1422.82288     592.6362     554.0411   1422.82288     592.6362     554.0411
   1422.80762     593.0906     553.7521   1422.80762     593.0906     553.7521
   1422.79236     592.4164     553.3843   1422.79236     592.4164     553.3843
   1422.77710     592.0114     551.5728   1422.77710     592.0114     551.5728
   1422.76184     591.5344     551.1157   1422.76184     591.5344     551.1157
   1422.74658     592.2556     549.7942   1422.74658     592.2556     549.7942
   1422.73132     590.4709     548.8071   1422.73132     590.4709     548.8071
   1422.71606     591.2994     548.7280   1422.71606     591.2994     548.7280
   1422.70081     591.6370     545.9999   1422.70081     591.6370     545.9999
   1422.68555     590.1995     546.0397   1422.68555     590.1995     546.0397
   1422.67029     590.7881     544.5474   1422.67029     590.7881     544.5474
   1422.65503     590.1771     543.6365   1422.65503     590.1771     543.6365
   1422.63977     590.1465     542.7793   1422.63977     590.1465     542.7793
   1422.62451     589.8323     541.3609   1422.62451     589.8323     541.3609
   1422.60925     590.3492     541.2722   1422.60925     590.3492     541.2722
   1422.59399     589.7563     539.3676   1422.59399     589.7563     539.3676
   1422.57874     589.3876     538.1469   1422.57874     589.3876     538.1469
   1422.56348     589.3737     537.6024   1422.56348     589.3737     537.6024
   1422.54822     589.6439     536.2651   1422.54822     589.6439     536.2651
   1422.53296     589.3700     534.5364   1422.53296     589.3700     534.5364
   1422.51770     589.2507     534.0402   1422.51770     589.2507     534.0402
   1422.50244     588.6262     532.4702   1422.50244     588.6262     532.4702
   1422.48718     588.7422     531.8782   1422.48718     588.7422     531.8782
   1422.47192     588.0203     531.3542   1422.47192     588.0203     531.3542
   1422.45667     588.4556     529.9587   1422.45667     588.4556     529.9587
   1422.44141     588.5032     529.5078   1422.44141     588.5032     529.5078
   1422.42615     588.3810     527.9216   1422.42615     588.3810     527.9216
   1422.41089     586.8545     527.0009   1422.41089     586.8545     527.0009
   1422.39563     587.9229     525.7612   1422.39563     587.9229     525.7612
   1422.38037     586.7571     523.2608   1422.38037     586.7571     523.2608
   1422.36511     587.1371     523.5461   1422.36511     587.1371     523.5461
   1422.34985     587.4824     522.1516   1422.34985     587.4824     522.1516
   1422.33459     587.1280     521.4498   1422.33459     587.1280     521.4498
   1422.31934     586.0611     519.3780   1422.31934     586.0611     519.3780
   1422.30408     587.6829     518.2599   1422.30408     587.6829     518.2599
   1422.28882     586.3900     516.5002   1422.28882     586.3900     516.5002
   1422.27356     586.0717     516.1365   1422.27356     586.0717     516.1365
   1422.25830     585.8066     515.0166   1422.25830     585.8066     515.0166
   1422.24304     585.2061     513.1577   1422.24304     585.2061     513.1577
   1422.22778     585.2323     511.8840   1422.22778     585.2323     511.8840
   1422.21252     586.0175     511.7650   1422.21252     586.0175     511.7650
   1422.19727     585.2931     510.2487   1422.19727     585.2931     510.2487
   1422.18201     584.6883     508.8384   1422.18201     584.6883     508.8384
   1422.16675     585.1375     507.7832   1422.16675     585.1375     507.7832
   1422.15149     585.8757     506.4766   1422.15149     585.8757     506.4766
   1422.13623     584.2313     504.3859   1422.13623     584.2313     504.3859
   1422.12097     584.5194     503.9085   1422.12097     584.5194     503.9085
   1422.10571     583.4244     502.8712   1422.10571     583.4244     502.8712
   1422.09045     584.0931     501.3422   1422.09045     584.0931     501.3422
   1422.07520     583.7496     499.6372   1422.07520     583.7496     499.6372
   1422.05994     583.2538     498.7567   1422.05994     583.2538     498.7567
   1422.04468     582.6404     498.4753   1422.04468     582.6404     498.4753
   1422.02942     583.1901     496.9268   1422.02942     583.1901     496.9268
   1422.01416     582.6308     495.8012   1422.01416     582.6308     495.8012
   1421.99890     582.4531     494.2934   1421.99890     582.4531     494.2934
   1421.98364     582.4007     493.1373   1421.98364     582.4007     493.1373
   1421.96838     582.5097     491.7885   1421.96838     582.5097     491.7885
   1421.95312     581.9751     490.1790   1421.95312     581.9751     490.1790
   1421.93787     581.7473     488.5856   1421.93787     581.7473     488.5856
   1421.92261     581.8463     488.1852   1421.92261     581.8463     488.1852
   1421.90735     581.8989     486.9469   1421.90735     581.8989     486.9469
   1421.89209     581.9099     486.2598   1421.89209     581.9099     486.2598
   1421.87683     581.2933     483.6002   1421.87683     581.2933     483.6002
   1421.86157     581.1172     483.1529   1421.86157     581.1172     483.1529
   1421.84631     580.8519     481.8246   1421.84631     580.8519     481.8246
   1421.83105     580.4408     480.9666   1421.83105     580.4408     480.9666
   1421.81580     580.8947     479.7079   1421.81580     580.8947     479.7079
   1421.80054     580.7773     478.0710   1421.80054     580.7773     478.0710
   1421.78528     580.4077     477.6140   1421.78528     580.4077     477.6140
   1421.77002     580.1969     475.5522   1421.77002     580.1969     475.5522
   1421.75476     579.8306     475.0507   1421.75476     579.8306     475.0507
   1421.73950     579.8829     473.2820   1421.73950     579.8829     473.2820
   1421.72424     579.8831     471.7245   1421.72424     579.8831     471.7245
   1421.70898     578.9769     470.8481   1421.70898     578.9769     470.8481
   1421.69373     579.5682     469.4265   1421.69373     579.5682     469.4265
   1421.67847     580.2663     468.8016   1421.67847     580.2663     468.8016
   1421.66321     579.0517     467.2251   1421.66321     579.0517     467.2251
   1421.64795     579.3422     466.4737   1421.64795     579.3422     466.4737
   1421.63269     577.8651     464.9222   1421.63269     577.8651     464.9222
   1421.61743     578.0009     464.0995   1421.61743     578.0009     464.0995
   1421.60217     577.1903     462.9929   1421.60217     577.1903     462.9929
   1421.58691     576.8486     460.9607   1421.58691     576.8486     460.9607
   1421.57166     577.4880     460.0070   1421.57166     577.4880     460.0070
   1421.55640     576.8373     459.3043   1421.55640     576.8373     459.3043
   1421.54114     576.9420     457.9632   1421.54114     576.9420     457.9632
   1421.52588     576.7836     456.3078   1421.52588     576.7836     456.3078
   1421.51062     576.5529     455.7097   1421.51062     576.5529     455.7097
   1421.49536     577.6894     454.7353   1421.49536     577.6894     454.7353
   1421.48010     577.1841     453.7737   1421.48010     577.1841     453.7737
   1421.46484     576.9473     451.9854   1421.46484     576.9473     451.9854
   1421.44958     576.0309     450.8862   1421.44958     576.0309     450.8862
   1421.43433     576.7542     449.7727   1421.43433     576.7542     449.7727
   1421.41907     575.8972     448.3834   1421.41907     575.8972     448.3834
   1421.40381     575.1996     447.3041   1421.40381     575.1996     447.3041
   1421.38855     575.1234     446.1232   1421.38855     575.1234     446.1232
   1421.37329     574.9738     445.4983   1421.37329     574.9738     445.4983
   1421.35803     575.3294     444.0523   1421.35803     575.3294     444.0523
   1421.34277     574.9484     443.7100   1421.34277     574.9484     443.7100
   1421.32751     575.0101     441.8021   1421.32751     575.0101     441.8021
   1421.31226     575.8065     440.9137   1421.31226     575.8065     440.9137
   1421.29700     573.3925     438.9424   1421.29700     573.3925     438.9424
   1421.28174     573.5921     438.4054   1421.28174     573.5921     438.4054
   1421.26648     573.7590     436.9209   1421.26648     573.7590     436.9209
   1421.25122     573.8586     436.2591   1421.25122     573.8586     436.2591
   1421.23596     573.7391     435.3128   1421.23596     573.7391     435.3128
   1421.22070     571.9156     434.2686   1421.22070     571.9156     434.2686
   1421.20544     572.2900     432.6792   1421.20544     572.2900     432.6792
   1421.19019     573.4567     432.6780   1421.19019     573.4567     432.6780
   1421.17493     572.3389     430.5787   1421.17493     572.3389     430.5787
   1421.15967     572.1560     430.0497   1421.15967     572.1560     430.0497
   1421.14441     572.4477     428.7144   1421.14441     572.4477     428.7144
   1421.12915     571.2057     427.6382   1421.12915     571.2057     427.6382
   1421.11389     572.5879     426.4471   1421.11389     572.5879     426.4471
   1421.09863     571.6254     425.4896   1421.09863     571.6254     425.4896
   1421.08337     570.8878     424.8140   1421.08337     570.8878     424.8140
   1421.06812     570.6151     423.7148   1421.06812     570.6151     423.7148
   1421.05286     570.4894     422.7343   1421.05286     570.4894     422.7343
   1421.03760     570.6640     421.7680   1421.03760     570.6640     421.7680
   1421.02234     570.4911     420.6607   1421.02234     570.4911     420.6607
   1421.00708     570.2119     419.5688   1421.00708     570.2119     419.5688
   1420.99182     569.7316     418.6473   1420.99182     569.7316     418.6473
   1420.97656     570.8647     417.7019   1420.97656     570.8647     417.7019
   1420.96130     570.4202     417.0524   1420.96130     570.4202     417.0524
   1420.94604     569.9743     415.8696   1420.94604     569.9743     415.8696
   1420.93079     570.3229     414.6959   1420.93079     570.3229     414.6959
   1420.91553     570.0054     414.3012   1420.91553     570.0054     414.3012
   1420.90027     569.3992     413.4746   1420.90027     569.3992     413.4746
   1420.88501     568.6392     412.4461   1420.88501     568.6392     412.4461
   1420.86975     568.8552     411.2766   1420.86975     568.8552     411.2766
   1420.85449     568.1087     410.7352   1420.85449     568.1087     410.7352
   1420.83923     567.3862     409.1750   1420.83923     567.3862     409.1750
   1420.82397     569.0361     407.9393   1420.82397     569.0361     407.9393
   1420.80872     569.0579     408.3923   1420.80872     569.0579     408.3923
   1420.79346     568.6959     407.5731   1420.79346     568.6959     407.5731
   1420.77820     568.4568     406.5081   1420.77820     568.4568     406.5081
   1420.76294     569.2397     405.8136   1420.76294     569.2397     405.8136
   1420.74768     568.7955     404.4897   1420.74768     568.7955     404.4897
   1420.73242     568.1746     404.5619   1420.73242     568.1746     404.5619
   1420.71716     567.5958     402.9068   1420.71716     567.5958     402.9068
   1420.70190     568.4720     403.0286   1420.70190     568.4720     403.0286
   1420.68665     568.9589     401.3518   1420.68665     568.9589     401.3518
   1420.67139     568.4872     400.9652   1420.67139     568.4872     400.9652
   1420.65613     568.3589     400.1684   1420.65613     568.3589     400.1684
   1420.64087     568.0152     398.8688   1420.64087     568.0152     398.8688
   1420.62561     568.8282     398.5827   1420.62561     568.8282     398.5827
   1420.61035     568.1746     397.1559   1420.61035     568.1746     397.1559
   1420.59509     568.1048     397.1562   1420.59509     568.1048     397.1562
   1420.57983     568.4935     395.9662   1420.57983     568.4935     395.9662
   1420.56458     567.8967     395.5924   1420.56458     567.8967     395.5924
   1420.54932     570.1094     395.6853   1420.54932     570.1094     395.6853
   1420.53406     570.3379     395.1030   1420.53406     570.3379     395.1030
   1420.51880     569.6401     394.5625   1420.51880     569.6401     394.5625
   1420.50354     570.9882     394.4745   1420.50354     570.9882     394.4745
   1420.48828     570.5388     394.1661   1420.48828     570.5388     394.1661
   1420.47302     571.0735     393.0916   1420.47302     571.0735     393.0916
   1420.45776     569.8909     392.8049   1420.45776     569.8909     392.8049
   1420.44250     570.5558     391.2889   1420.44250     570.5558     391.2889
   1420.42725     570.5992     389.9684   1420.42725     570.5992     389.9684
   1420.41199     570.5416     389.3902   1420.41199     570.5416     389.3902
   1420.39673     570.0135     388.9301   1420.39673     570.0135     388.9301
   1420.38147     569.9418     387.9456   1420.38147     569.9418     387.9456
   1420.36621     568.7610     387.0393   1420.36621     568.7610     387.0393
   1420.35095     569.3066     386.9993   1420.35095     569.3066     386.9993
   1420.33569     569.0813     387.1129   1420.33569     569.0813     387.1129
   1420.32043     570.7321     387.4152   1420.32043     570.7321     387.4152
   1420.30518     572.6531     387.6368   1420.30518     572.6531     387.6368
   1420.28992     575.0132     389.6941   1420.28992     575.0132     389.6941
   1420.27466     585.1625     395.6597   1420.27466     585.1625     395.6597
   1420.25940     608.0515     409.4648   1420.25940     608.0515     409.4648
   1420.24414     659.7907     440.9948   1420.24414     659.7907     440.9948
   1420.22888     705.8668     469.5062   1420.22888     705.8668     469.5062
   1420.21362     725.8463     481.8920   1420.21362     725.8463     481.8920
   1420.19836     771.4104     509.9678   1420.19836     771.4104     509.9678
   1420.18311     931.2946     611.4470   1420.18311     931.2946     611.4470
   1420.16785    1277.5315     832.8915   1420.16785    1277.5315     832.8915
   1420.15259    1630.9816    1056.3541   1420.15259    1630.9816    1056.3541
   1420.13733    1651.9070    1067.0986   1420.13733    1651.9070    1067.0986
   1420.12207    1236.9192     802.1727   1420.12207    1236.9192     802.1727
   1420.10681     895.2547     582.8630   1420.10681     895.2547     582.8630
   1420.09155     718.8747     471.3423   1420.09155     718.8747     471.3423
   1420.07629     635.2311     418.2848   1420.07629     635.2311     418.2848
   1420.06104     604.4634     398.6846   1420.06104     604.4634     398.6846
   1420.04578     595.4846     392.9401   1420.04578     595.4846     392.9401
   1420.03052     601.2041     395.3571   1420.03052     601.2041     395.3571
   1420.01526     627.9131     412.3074   1420.01526     627.9131     412.3074
   1420.00000     749.6021     488.0797   1420.00000     749.6021     488.0797
   1419.98474     871.2914     563.8521   1419.98474     871.2914     563.8521
   1419.96948     981.6524     630.2068   1419.96948     981.6524     630.2068
   1419.95422    1087.9845     695.4376   1419.95422    1087.9845     695.4376
   1419.93896    1232.3063     783.0784   1419.93896    1232.3063     783.0784
   1419.92371    1110.9427     708.1394   1419.92371    1110.9427     708.1394
   1419.90845     960.1785     613.4682   1419.90845     960.1785     613.4682
   1419.89319     904.7698     579.4200   1419.89319     904.7698     579.4200
   1419.87793     913.4141     583.9692   1419.87793     913.4141     583.9692
   1419.86267     921.1054     585.6587   1419.86267     921.1054     585.6587
   1419.84741     915.1178     581.4310   1419.84741     915.1178     581.4310
   1419.83215     878.6142     558.7897   1419.83215     878.6142     558.7897
   1419.81689     840.6708     536.3467   1419.81689     840.6708     536.3467
   1419.80164     799.3528     510.3728   1419.80164     799.3528     510.3728
   1419.78638     752.5492     480.2234   1419.78638     752.5492     480.2234
   1419.77112     710.0126     454.4297   1419.77112     710.0126     454.4297
   1419.75586     679.2162     434.5850   1419.75586     679.2162     434.5850
   1419.74060     664.3463     425.8004   1419.74060     664.3463     425.8004
   1419.72534     654.2532     418.4966   1419.72534     654.2532     418.4966
   1419.71008     643.9658     411.3095   1419.71008     643.9658     411.3095
   1419.69482     631.6871     403.8866   1419.69482     631.6871     403.8866
   1419.67957     624.2565     398.0813   1419.67957     624.2565     398.0813
   1419.66431     615.6795     392.4316   1419.66431     615.6795     392.4316
   1419.64905     607.9105     389.4576   1419.64905     607.9105     389.4576
   1419.63379     604.6124     385.6153   1419.63379     604.6124     385.6153
   1419.61853     593.1197     377.8857   1419.61853     593.1197     377.8857
   1419.60327     582.6292     371.7339   1419.60327     582.6292     371.7339
   1419.58801     575.6115     366.6050   1419.58801     575.6115     366.6050
   1419.57275     571.4142     363.9184   1419.57275     571.4142     363.9184
   1419.55750     567.4401     361.0975   1419.55750     567.4401     361.0975
   1419.54224     566.4513     359.6284   1419.54224     566.4513     359.6284
   1419.52698     564.6512     358.7994   1419.52698     564.6512     358.7994
   1419.51172     564.7698     358.1363   1419.51172     564.7698     358.1363
   1419.49646     563.2966     357.4993   1419.49646     563.2966     357.4993
   1419.48120     564.1152     356.7635   1419.48120     564.1152     356.7635
   1419.46594     563.8969     357.0186   1419.46594     563.8969     357.0186
   1419.45068     564.6372     356.3393   1419.45068     564.6372     356.3393
   1419.43542     564.8032     356.0562   1419.43542     564.8032     356.0562
   1419.42017     564.9070     356.1237   1419.42017     564.9070     356.1237
   1419.40491     565.2438     356.4547   1419.40491     565.2438     356.4547
   1419.38965     564.6925     356.2641   1419.38965     564.6925     356.2641
   1419.37439     565.6802     355.6978   1419.37439     565.6802     355.6978
   1419.35913     565.1912     356.6291   1419.35913     565.1912     356.6291
   1419.34387     566.6196     355.6830   1419.34387     566.6196     355.6830
   1419.32861     566.0005     355.2448   1419.32861     566.0005     355.2448
   1419.31335     566.7758     354.7532   1419.31335     566.7758     354.7532
   1419.29810     565.7252     355.6738   1419.29810     565.7252     355.6738
   1419.28284     567.7480     354.9200   1419.28284     567.7480     354.9200
   1419.26758     570.6807     355.4404   1419.26758     570.6807     355.4404
   1419.25232     567.6679     355.3104   1419.25232     567.6679     355.3104
   1419.23706     567.7797     355.7189   1419.23706     567.7797     355.7189
   1419.22180     569.3700     355.7849   1419.22180     569.3700     355.7849
   1419.20654     569.1710     354.7901   1419.20654     569.1710     354.7901
   1419.19128     569.8253     355.3638   1419.19128     569.8253     355.3638
   1419.17603     568.9454     355.3044   1419.17603     568.9454     355.3044
   1419.16077     569.7817     354.7427   1419.16077     569.7817     354.7427
   1419.14551     570.1459     354.9362   1419.14551     570.1459     354.9362
   1419.13025     570.2899     354.7885   1419.13025     570.2899     354.7885
   1419.11499     569.7780     354.9407   1419.11499     569.7780     354.9407
   1419.09973     571.2285     355.4900   1419.09973     571.2285     355.4900
   1419.08447     571.1985     355.3165   1419.08447     571.1985     355.3165
   1419.06921     573.1596     355.3107   1419.06921     573.1596     355.3107
   1419.05396     573.1413     355.3253   1419.05396     573.1413     355.3253
   1419.03870     573.3611     355.5227   1419.03870     573.3611     355.5227
   1419.02344     573.6979     355.4144   1419.02344     573.6979     355.4144
   1419.00818     574.2040     355.4897   1419.00818     574.2040     355.4897
   1418.99292     574.8823     356.0836   1418.99292     574.8823     356.0836
   1418.97766     575.0302     355.5097   1418.97766     575.0302     355.5097
   1418.96240     576.1149     356.0583   1418.96240     576.1149     356.0583
   1418.94714     576.1386     356.2006   1418.94714     576.1386     356.2006
   1418.93188     576.7836     355.9437   1418.93188     576.7836     355.9437
   1418.91663     578.0290     356.1274   1418.91663     578.0290     356.1274
   1418.90137     577.5595     356.2581   1418.90137     577.5595     356.2581
   1418.88611     577.3862     356.7793   1418.88611     577.3862     356.7793
   1418.87085     578.8288     356.9800   1418.87085     578.8288     356.9800
   1418.85559     578.9334     356.5667   1418.85559     578.9334     356.5667
   1418.84033     580.1857     357.0708   1418.84033     580.1857     357.0708
   1418.82507     580.1821     356.8513   1418.82507     580.1821     356.8513
   1418.80981     580.0002     356.9083   1418.80981     580.0002     356.9083
   1418.79456     581.5546     357.1496   1418.79456     581.5546     357.1496
   1418.77930     582.0641     357.9043   1418.77930     582.0641     357.9043
   1418.76404     582.1041     357.9619   1418.76404     582.1041     357.9619
   1418.74878     583.7505     358.2434   1418.74878     583.7505     358.2434
   1418.73352     584.0763     358.6313   1418.73352     584.0763     358.6313
   1418.71826     584.7336     358.6715   1418.71826     584.7336     358.6715
   1418.70300     585.8846     358.9517   1418.70300     585.8846     358.9517
   1418.68774     586.4166     359.4545   1418.68774     586.4166     359.4545
   1418.67249     586.6157     359.8176   1418.67249     586.6157     359.8176
   1418.65723     587.0630     359.6383   1418.65723     587.0630     359.6383
   1418.64197     588.0356     360.8228   1418.64197     588.0356     360.8228
   1418.62671     589.4359     360.4938   1418.62671     589.4359     360.4938
   1418.61145     589.6458     360.9125   1418.61145     589.6458     360.9125
   1418.59619     590.3392     361.0702   1418.59619     590.3392     361.0702
   1418.58093     590.7596     361.7827   1418.58093     590.7596     361.7827
   1418.56567     592.1077     361.8913   1418.56567     592.1077     361.8913
   1418.55042     592.2540     362.4208   1418.55042     592.2540     362.4208
   1418.53516     593.8605     362.5697   1418.53516     593.8605     362.5697
   1418.51990     593.4895     362.6068   1418.51990     593.4895     362.6068
   1418.50464     595.2317     363.3514   1418.50464     595.2317     363.3514
   1418.48938     595.0167     363.0207   1418.48938     595.0167     363.0207
   1418.47412     595.9737     363.5326   1418.47412     595.9737     363.5326
   1418.45886     597.0732     364.4920   1418.45886     597.0732     364.4920
   1418.44360     597.4035     365.3275   1418.44360     597.4035     365.3275
   1418.42834     597.6274     365.1390   1418.42834     597.6274     365.1390
   1418.41309     599.3945     365.5842   1418.41309     599.3945     365.5842
   1418.39783     600.5648     365.6099   1418.39783     600.5648     365.6099
   1418.38257     601.5484     366.1966   1418.38257     601.5484     366.1966
   1418.36731     601.5483     367.0822   1418.36731     601.5483     367.0822
   1418.35205     602.3778     367.2943   1418.35205     602.3778     367.2943
   1418.33679     603.9333     367.1325   1418.33679     603.9333     367.1325
   1418.32153     604.4581     367.7988   1418.32153     604.4581     367.7988
   1418.30627     605.3005     368.5542   1418.30627     605.3005     368.5542
   1418.29102     605.8044     369.7586   1418.29102     605.8044     369.7586
   1418.27576     607.4020     369.2967   1418.27576     607.4020     369.2967
   1418.26050     607.7484     369.7598   1418.26050     607.7484     369.7598
   1418.24524     609.1688     369.6809   1418.24524     609.1688     369.6809
   1418.22998     609.5374     371.0557   1418.22998     609.5374     371.0557
   1418.21472     610.5081     371.2726   1418.21472     610.5081     371.2726
   1418.19946     611.3859     371.7807   1418.19946     611.3859     371.7807
   1418.18420     612.8861     372.0218   1418.18420     612.8861     372.0218
   1418.16895     613.8275     372.7293   1418.16895     613.8275     372.7293
   1418.15369     614.1482     372.7211   1418.15369     614.1482     372.7211
   1418.13843     615.4248     374.0040   1418.13843     615.4248     374.0040
   1418.12317     616.1451     374.1749   1418.12317     616.1451     374.1749
   1418.10791     617.4547     374.7695   1418.10791     617.4547     374.7695
   1418.09265     617.6634     375.4074   1418.09265     617.6634     375.4074
   1418.07739     619.0963     375.4298   1418.07739     619.0963     375.4298
   1418.06213     620.3616     376.0692   1418.06213     620.3616     376.0692
   1418.04688     620.9775     377.0876   1418.04688     620.9775     377.0876
   1418.03162     622.9348     377.0523   1418.03162     622.9348     377.0523
   1418.01636     622.3812     378.4415   1418.01636     622.3812     378.4415
   1418.00110     624.4224     378.6386   1418.00110     624.4224     378.6386
   1417.98584     624.1743     378.8305   1417.98584     624.1743     378.8305
   1417.97058     626.4922     379.9778   1417.97058     626.4922     379.9778
   1417.95532     626.9877     379.8102   1417.95532     626.9877     379.8102
   1417.94006     627.2637     381.1064   1417.94006     627.2637     381.1064
   1417.92480     628.1812     380.7899   1417.92480     628.1812     380.7899
   1417.90955     630.9173     382.1985   1417.90955     630.9173     382.1985
   1417.89429     631.8417     382.0978   1417.89429     631.8417     382.0978
   1417.87903     632.6967     382.9721   1417.87903     632.6967     382.9721
   1417.86377     633.1284     383.4671   1417.86377     633.1284     383.4671
   1417.84851     633.4639     384.0098   1417.84851     633.4639     384.0098
   1417.83325     634.9089     384.1672   1417.83325     634.9089     384.1672
   1417.81799     636.8985     385.8127   1417.81799     636.8985     385.8127
   1417.80273     636.6396     385.9375   1417.80273     636.6396     385.9375
   1417.78748     637.7021     386.2890   1417.78748     637.7021     386.2890
   1417.77222     638.6585     386.6378   1417.77222     638.6585     386.6378
   1417.75696     639.5783     387.9589   1417.75696     639.5783     387.9589
   1417.74170     642.4940     387.8515   1417.74170     642.4940     387.8515
   1417.72644     642.1000     388.7340   1417.72644     642.1000     388.7340
   1417.71118     643.3675     389.1362   1417.71118     643.3675     389.1362
   1417.69592     644.2144     389.9190   1417.69592     644.2144     389.9190
   1417.68066     644.7552     390.7746   1417.68066     644.7552     390.7746
   1417.66541     646.4377     390.9918   1417.66541     646.4377     390.9918
   1417.65015     646.7853     391.1030   1417.65015     646.7853     391.1030
   1417.63489     650.1536     391.9637   1417.63489     650.1536     391.9637
   1417.61963     649.4775     392.9315   1417.61963     649.4775     392.9315
   1417.60437     651.3317     393.3879   1417.60437     651.3317     393.3879
   1417.58911     651.7466     394.5511   1417.58911     651.7466     394.5511
   1417.57385     653.4716     394.9355   1417.57385     653.4716     394.9355
   1417.55859     653.4260     395.8042   1417.55859     653.4260     395.8042
   1417.54333     654.8386     395.8598   1417.54333     654.8386     395.8598
   1417.52808     655.5000     396.7812   1417.52808     655.5000     396.7812
   1417.51282     656.8253     397.0915   1417.51282     656.8253     397.0915
   1417.49756     658.7355     397.6344   1417.49756     658.7355     397.6344
   1417.48230     658.8798     398.5893   1417.48230     658.8798     398.5893
   1417.46704     659.8931     398.5057   1417.46704     659.8931     398.5057
   1417.45178     660.2911     400.1877   1417.45178     660.2911     400.1877
   1417.43652     661.4115     399.7690   1417.43652     661.4115     399.7690
   1417.42126     663.8831     400.9151   1417.42126     663.8831     400.9151
   1417.40601     664.2799     401.2215   1417.40601     664.2799     401.2215
   1417.39075     664.8344     401.4589   1417.39075     664.8344     401.4589
   1417.37549     667.2188     402.3223   1417.37549     667.2188     402.3223
   1417.36023     667.7216     403.5940   1417.36023     667.7216     403.5940
   1417.34497     668.1022     404.0615   1417.34497     668.1022     404.0615
   1417.32971     669.7282     404.2180   1417.32971     669.7282     404.2180
   1417.31445     670.1990     405.3723   1417.31445     670.1990     405.3723
   1417.29919     671.2265     405.7207   1417.29919     671.2265     405.7207
   1417.28394     671.5381     405.9353   1417.28394     671.5381     405.9353
   1417.26868     672.8491     406.8019   1417.26868     672.8491     406.8019
   1417.25342     672.9111     407.5246   1417.25342     672.9111     407.5246
   1417.23816     674.7417     407.4264   1417.23816     674.7417     407.4264
   1417.22290     677.4896     408.3370   1417.22290     677.4896     408.3370
   1417.20764     676.0140     408.7322   1417.20764     676.0140     408.7322
   1417.19238     676.4867     408.5739   1417.19238     676.4867     408.5739
   1417.17712     678.8998     409.4323   1417.17712     678.8998     409.4323
   1417.16187     679.0980     410.5656   1417.16187     679.0980     410.5656
   1417.14661     680.4075     411.2918   1417.14661     680.4075     411.2918
   1417.13135     681.5071     411.5897   1417.13135     681.5071     411.5897
   1417.11609     681.7590     411.9156   1417.11609     681.7590     411.9156
   1417.10083     682.1230     412.2296   1417.10083     682.1230     412.2296
   1417.08557     682.5274     412.2676   1417.08557     682.5274     412.2676
   1417.07031     684.5770     413.4464   1417.07031     684.5770     413.4464
   1417.05505     685.0062     414.1133   1417.05505     685.0062     414.1133
   1417.03979     685.5099     414.0117   1417.03979     685.5099     414.0117
   1417.02454     686.4355     415.4051   1417.02454     686.4355     415.4051
   1417.00928     687.9850     415.3635   1417.00928     687.9850     415.3635
   1416.99402     687.3331     416.4991   1416.99402     687.3331     416.4991
   1416.97876     689.5596     416.2961   1416.97876     689.5596     416.2961
   1416.96350     690.7308     416.4214   1416.96350     690.7308     416.4214
   1416.94824     689.7444     417.2646   1416.94824     689.7444     417.2646
   1416.93298     691.5049     418.0586   1416.93298     691.5049     418.0586
   1416.91772     692.0015     418.2232   1416.91772     692.0015     418.2232
   1416.90247     691.4785     418.7017   1416.90247     691.4785     418.7017
   1416.88721     692.0647     419.2273   1416.88721     692.0647     419.2273
   1416.87195     693.2333     418.5926   1416.87195     693.2333     418.5926
   1416.85669     694.0099     419.7040   1416.85669     694.0099     419.7040
   1416.84143     693.9066     420.5373   1416.84143     693.9066     420.5373
   1416.82617     694.8784     420.5688   1416.82617     694.8784     420.5688
   1416.81091     695.2845     421.1800   1416.81091     695.2845     421.1800
   1416.79565     695.6138     421.6698   1416.79565     695.6138     421.6698
   1416.78040     695.9218     422.3210   1416.78040     695.9218     422.3210
   1416.76514     696.4085     421.9256   1416.76514     696.4085     421.9256
   1416.74988     696.1961     422.3441   1416.74988     696.1961     422.3441
   1416.73462     695.5990     422.8403   1416.73462     695.5990     422.8403
   1416.71936     697.8461     422.7881   1416.71936     697.8461     422.7881
   1416.70410     698.6786     423.3411   1416.70410     698.6786     423.3411
   1416.68884     698.0797     423.6707   1416.68884     698.0797     423.6707
   1416.67358     699.5335     422.8386   1416.67358     699.5335     422.8386
   1416.65833     699.9120     423.9220   1416.65833     699.9120     423.9220
   1416.64307     697.9509     424.0033   1416.64307     697.9509     424.0033
   1416.62781     699.2835     423.9441   1416.62781     699.2835     423.9441
   1416.61255     699.3932     425.1060   1416.61255     699.3932     425.1060
   1416.59729     699.5488     425.1601   1416.59729     699.5488     425.1601
   1416.58203     699.3885     425.2834   1416.58203     699.3885     425.2834
   1416.56677     700.2093     425.5759   1416.56677     700.2093     425.5759
   1416.55151     699.1624     424.9239   1416.55151     699.1624     424.9239
   1416.53625     700.4808     424.9172   1416.53625     700.4808     424.9172
   1416.52100     700.4876     424.9352   1416.52100     700.4876     424.9352
   1416.50574     700.6818     425.9373   1416.50574     700.6818     425.9373
   1416.49048     700.4047     425.2697   1416.49048     700.4047     425.2697
   1416.47522     700.4812     425.7501   1416.47522     700.4812     425.7501
   1416.45996     701.2576     425.5352   1416.45996     701.2576     425.5352
   1416.44470     700.2377     425.7066   1416.44470     700.2377     425.7066
   1416.42944     699.6785     426.3634   1416.42944     699.6785     426.3634
   1416.41418     701.0743     425.8123   1416.41418     701.0743     425.8123
   1416.39893     699.5102     426.0595   1416.39893     699.5102     426.0595
   1416.38367     700.5569     426.0180   1416.38367     700.5569     426.0180
   1416.36841     699.1360     426.8729   1416.36841     699.1360     426.8729
   1416.35315     699.0164     425.4264   1416.35315     699.0164     425.4264
   1416.33789     699.4610     426.8130   1416.33789     699.4610     426.8130
   1416.32263     699.0585     426.5988   1416.32263     699.0585     426.5988
   1416.30737     700.2943     426.1786   1416.30737     700.2943     426.1786
   1416.29211     698.9336     426.0749   1416.29211     698.9336     426.0749
   1416.27686     699.1687     426.3947   1416.27686     699.1687     426.3947
   1416.26160     698.5357     426.1785   1416.26160     698.5357     426.1785
   1416.24634     699.3726     426.2644   1416.24634     699.3726     426.2644
   1416.23108     697.8678     426.4174   1416.23108     697.8678     426.4174
   1416.21582     697.2629     425.9189   1416.21582     697.2629     425.9189
   1416.20056     696.2073     426.4380   1416.20056     696.2073     426.4380
   1416.18530     697.1741     425.5220   1416.18530     697.1741     425.5220
   1416.17004     695.7007     425.9995   1416.17004     695.7007     425.9995
   1416.15479     695.9380     425.4967   1416.15479     695.9380     425.4967
   1416.13953     696.5141     425.0299   1416.13953     696.5141     425.0299
   1416.12427     696.0179     425.6454   1416.12427     696.0179     425.6454
   1416.10901     695.3029     425.9686   1416.10901     695.3029     425.9686
   1416.09375     692.9434     424.4199   1416.09375     692.9434     424.4199
   1416.07849     694.4943     425.2304   1416.07849     694.4943     425.2304
   1416.06323     694.2166     425.6123   1416.06323     694.2166     425.6123
   1416.04797     691.9827     424.6323   1416.04797     691.9827     424.6323
   1416.03271     692.5346     424.0812   1416.03271     692.5346     424.0812
   1416.01746     691.4026     423.7978   1416.01746     691.4026     423.7978
   1416.00220     691.6454     424.6805   1416.00220     691.6454     424.6805
   1415.98694     691.0805     424.7149   1415.98694     691.0805     424.7149
   1415.97168     689.5984     423.7672   1415.97168     689.5984     423.7672
   1415.95642     689.3420     423.9940   1415.95642     689.3420     423.9940
   1415.94116     688.5997     422.6494   1415.94116     688.5997     422.6494
   1415.92590     687.8122     423.3114   1415.92590     687.8122     423.3114
   1415.91064     687.4727     423.5146   1415.91064     687.4727     423.5146
   1415.89539     687.7511     423.0632   1415.89539     687.7511     423.0632
   1415.88013     685.3906     423.1142   1415.88013     685.3906     423.1142
   1415.86487     685.1539     422.8533   1415.86487     685.1539     422.8533
   1415.84961     685.1592     422.3065   1415.84961     685.1592     422.3065
   1415.83435     683.9363     422.0491   1415.83435     683.9363     422.0491
   1415.81909     683.6826     422.2791   1415.81909     683.6826     422.2791
   1415.80383     683.1161     421.5861   1415.80383     683.1161     421.5861
   1415.78857     682.2355     421.9095   1415.78857     682.2355     421.9095
   1415.77332     681.1509     421.7418   1415.77332     681.1509     421.7418
   1415.75806     680.4479     421.0793   1415.75806     680.4479     421.0793
   1415.74280     679.3517     421.1672   1415.74280     679.3517     421.1672
   1415.72754     679.4023     421.2500   1415.72754     679.4023     421.2500
   1415.71228     678.5043     420.5612   1415.71228     678.5043     420.5612
   1415.69702     678.0273     420.9988   1415.69702     678.0273     420.9988
   1415.68176     676.7623     419.6621   1415.68176     676.7623     419.6621
   1415.66650     674.9895     420.2175   1415.66650     674.9895     420.2175
   1415.65125     674.7451     420.0138   1415.65125     674.7451     420.0138
   1415.63599     674.1167     419.1855   1415.63599     674.1167     419.1855
   1415.62073     673.4582     418.1242   1415.62073     673.4582     418.1242
   1415.60547     671.9460     418.2681   1415.60547     671.9460     418.2681
   1415.59021     671.5938     418.4937   1415.59021     671.5938     418.4937
   1415.57495     670.6879     418.1999   1415.57495     670.6879     418.1999
   1415.55969     669.4760     418.4639   1415.55969     669.4760     418.4639
   1415.54443     669.4219     418.4092   1415.54443     669.4219     418.4092
   1415.52917     668.2422     417.3573   1415.52917     668.2422     417.3573
   1415.51392     667.1206     417.6383   1415.51392     667.1206     417.6383
   1415.49866     665.8860     417.3152   1415.49866     665.8860     417.3152
   1415.48340     664.6004     416.6118   1415.48340     664.6004     416.6118
   1415.46814     665.4936     416.5217   1415.46814     665.4936     416.5217
   1415.45288     662.9683     416.5874   1415.45288     662.9683     416.5874
   1415.43762     662.0930     415.4805   1415.43762     662.0930     415.4805
   1415.42236     661.4014     415.9877   1415.42236     661.4014     415.9877
   1415.40710     660.3534     414.8552   1415.40710     660.3534     414.8552
   1415.39185     658.4586     415.5791   1415.39185     658.4586     415.5791
   1415.37659     658.5038     414.8329   1415.37659     658.5038     414.8329
   1415.36133     657.0289     414.5221   1415.36133     657.0289     414.5221
   1415.34607     655.6074     413.3310   1415.34607     655.6074     413.3310
   1415.33081     654.8095     413.2291   1415.33081     654.8095     413.2291
   1415.31555     653.9767     413.1253   1415.31555     653.9767     413.1253
   1415.30029     652.4760     413.0965   1415.30029     652.4760     413.0965
   1415.28503     650.7849     411.9757   1415.28503     650.7849     411.9757
   1415.26978     649.8399     412.1225   1415.26978     649.8399     412.1225
   1415.25452     648.9158     411.4451   1415.25452     648.9158     411.4451
   1415.23926     647.9763     411.6691   1415.23926     647.9763     411.6691
   1415.22400     646.5569     411.2208   1415.22400     646.5569     411.2208
   1415.20874     644.1821     410.2451   1415.20874     644.1821     410.2451
   1415.19348     643.1069     409.7226   1415.19348     643.1069     409.7226
   1415.17822     644.4940     410.3559   1415.17822     644.4940     410.3559
   1415.16296     643.1140     409.3826   1415.16296     643.1140     409.3826
   1415.14771     639.7313     409.3315   1415.14771     639.7313     409.3315
   1415.13245     637.6870     408.6346   1415.13245     637.6870     408.6346
   1415.11719     636.5728     408.3449   1415.11719     636.5728     408.3449
   1415.10193     635.7427     408.1944   1415.10193     635.7427     408.1944
   1415.08667     634.8375     407.3559   1415.08667     634.8375     407.3559
   1415.07141     632.1302     406.8365   1415.07141     632.1302     406.8365
   1415.05615     632.2391     405.8807   1415.05615     632.2391     405.8807
   1415.04089     630.9853     405.7293   1415.04089     630.9853     405.7293
   1415.02563     629.1815     406.0624   1415.02563     629.1815     406.0624
   1415.01038     628.0495     404.5871   1415.01038     628.0495     404.5871
   1414.99512     625.9133     403.9316   1414.99512     625.9133     403.9316
   1414.97986     623.3804     403.9619   1414.97986     623.3804     403.9619
   1414.96460     622.8357     403.2090   1414.96460     622.8357     403.2090
   1414.94934     621.6360     403.3739   1414.94934     621.6360     403.3739
   1414.93408     620.1988     402.8464   1414.93408     620.1988     402.8464
   1414.91882     618.4415     402.0730   1414.91882     618.4415     402.0730
   1414.90356     616.2495     401.5496   1414.90356     616.2495     401.5496
   1414.88831     614.7165     400.6379   1414.88831     614.7165     400.6379
   1414.87305     614.7208     399.9984   1414.87305     614.7208     399.9984
   1414.85779     611.7538     399.8759   1414.85779     611.7538     399.8759
   1414.84253     610.2909     399.2172   1414.84253     610.2909     399.2172
   1414.82727     608.4273     398.6710   1414.82727     608.4273     398.6710
   1414.81201     606.7205     397.1670   1414.81201     606.7205     397.1670
   1414.79675     604.3904     397.4631   1414.79675     604.3904     397.4631
   1414.78149     604.4083     396.4475   1414.78149     604.4083     396.4475
   1414.76624     600.3457     396.4343   1414.76624     600.3457     396.4343
   1414.75098     599.1572     395.2381   1414.75098     599.1572     395.2381
   1414.73572     598.2892     394.7373   1414.73572     598.2892     394.7373
   1414.72046     596.8250     393.7895   1414.72046     596.8250     393.7895
   1414.70520     594.8630     393.5273   1414.70520     594.8630     393.5273
   1414.68994     592.5177     392.9214   1414.68994     592.5177     392.9214
   1414.67468     590.8481     391.8790   1414.67468     590.8481     391.8790
   1414.65942     588.1259     391.3877   1414.65942     588.1259     391.3877
   1414.64417     586.0005     390.5827   1414.64417     586.0005     390.5827
   1414.62891     584.4368     390.1638   1414.62891     584.4368     390.1638
   1414.61365     583.6130     389.4008   1414.61365     583.6130     389.4008
   1414.59839     581.1379     388.6708   1414.59839     581.1379     388.6708
   1414.58313     579.4433     387.5976   1414.58313     579.4433     387.5976
   1414.56787     577.3250     387.4322   1414.56787     577.3250     387.4322
   1414.55261     574.8136     386.7038   1414.55261     574.8136     386.7038
   1414.53735     572.6941     385.0485   1414.53735     572.6941     385.0485
   1414.52209     570.4103     384.4925   1414.52209     570.4103     384.4925
   1414.50684     568.9128     384.1663   1414.50684     568.9128     384.1663
   1414.49158     567.2488     382.4438   1414.49158     567.2488     382.4438
   1414.47632     564.8044     382.0092   1414.47632     564.8044     382.0092
   1414.46106     562.4843     381.1023   1414.46106     562.4843     381.1023
   1414.44580     560.0330     379.9686   1414.44580     560.0330     379.9686
   1414.43054     557.7087     379.9140   1414.43054     557.7087     379.9140
   1414.41528     556.0771     378.7379   1414.41528     556.0771     378.7379
   1414.40002     552.7928     377.7115   1414.40002     552.7928     377.7115
   1414.38477     551.4270     377.1197   1414.38477     551.4270     377.1197
   1414.36951     549.2867     375.8508   1414.36951     549.2867     375.8508
   1414.35425     547.8566     374.7297   1414.35425     547.8566     374.7297
   1414.33899     544.2663     374.2114   1414.33899     544.2663     374.2114
   1414.32373     542.7566     373.1964   1414.32373     542.7566     373.1964
   1414.30847     541.4293     372.0092   1414.30847     541.4293     372.0092
   1414.29321     537.3085     371.1841   1414.29321     537.3085     371.1841
   1414.27795     535.6713     370.3915   1414.27795     535.6713     370.3915
   1414.26270     532.7917     369.0448   1414.26270     532.7917     369.0448
   1414.24744     530.8275     368.1073   1414.24744     530.8275     368.1073
   1414.23218     528.1122     367.3100   1414.23218     528.1122     367.3100
   1414.21692     526.2211     366.1265   1414.21692     526.2211     366.1265
   1414.20166     523.7294     364.7971   1414.20166     523.7294     364.7971
   1414.18640     521.4814     364.2575   1414.18640     521.4814     364.2575
   1414.17114     519.3165     363.1077   1414.17114     519.3165     363.1077
   1414.15588     516.3063     361.8240   1414.15588     516.3063     361.8240
   1414.14062     513.8669     360.6836   1414.14062     513.8669     360.6836
   1414.12537     512.0079     359.9796   1414.12537     512.0079     359.9796
   1414.11011     509.5721     358.8456   1414.11011     509.5721     358.8456
   1414.09485     506.6020     357.1265   1414.09485     506.6020     357.1265
   1414.07959     504.3947     356.3512   1414.07959     504.3947     356.3512
   1414.06433     502.8289     354.4275   1414.06433     502.8289     354.4275
   1414.04907     499.2845     354.2155   1414.04907     499.2845     354.2155
   1414.03381     496.4591     353.1645   1414.03381     496.4591     353.1645
   1414.01855     494.6857     352.1366   1414.01855     494.6857     352.1366
   1414.00330     513.3392     358.6223   1414.00330     513.3392     358.6223
   1413.98804     490.3896     350.0864   1413.98804     490.3896     350.0864
   1413.97278     486.4934     349.2532   1413.97278     486.4934     349.2532
   1413.95752     483.3066     347.1035   1413.95752     483.3066     347.1035
   1413.94226     481.7250     345.2534   1413.94226     481.7250     345.2534
   1413.92700     479.0943     344.5471   1413.92700     479.0943     344.5471
   1413.91174     475.9069     343.1436   1413.91174     475.9069     343.1436
   1413.89648     473.5038     342.3390   1413.89648     473.5038     342.3390
   1413.88123     470.7564     340.7592   1413.88123     470.7564     340.7592
   1413.86597     467.9292     339.7888   1413.86597     467.9292     339.7888
   1413.85071     465.8145     338.4602   1413.85071     465.8145     338.4602
   1413.83545     462.5146     337.1418   1413.83545     462.5146     337.1418
   1413.82019     460.9254     335.6126   1413.82019     460.9254     335.6126
   1413.80493     458.2100     334.7620   1413.80493     458.2100     334.7620
   1413.78967     455.9044     333.7054   1413.78967     455.9044     333.7054
   1413.77441     452.9180     332.1630   1413.77441     452.9180     332.1630
   1413.75916     449.6786     330.3127   1413.75916     449.6786     330.3127
   1413.74390     448.3585     329.8758   1413.74390     448.3585     329.8758
   1413.72864     444.7352     328.3928   1413.72864     444.7352     328.3928
   1413.71338     442.8280     326.9480   1413.71338     442.8280     326.9480
   1413.69812     440.0706     325.6263   1413.69812     440.0706     325.6263
   1413.68286     437.2598     324.8297   1413.68286     437.2598     324.8297
   1413.66760     434.0626     322.9116   1413.66760     434.0626     322.9116
   1413.65234     431.7449     321.2760   1413.65234     431.7449     321.2760
   1413.63708     429.0743     319.8917   1413.63708     429.0743     319.8917
   1413.62183     427.1692     318.7812   1413.62183     427.1692     318.7812
   1413.60657     424.5291     317.5240   1413.60657     424.5291     317.5240
   1413.59131     422.2303     316.4582   1413.59131     422.2303     316.4582
   1413.57605     420.1598     315.1658   1413.57605     420.1598     315.1658
   1413.56079     417.1241     313.5297   1413.56079     417.1241     313.5297
   1413.54553     414.8754     312.3309   1413.54553     414.8754     312.3309
   1413.53027     412.1700     311.2287   1413.53027     412.1700     311.2287
   1413.51501     409.3293     309.3088   1413.51501     409.3293     309.3088
   1413.49976     406.9568     307.9611   1413.49976     406.9568     307.9611
   1413.48450     404.7359     306.3993   1413.48450     404.7359     306.3993
   1413.46924     402.7647     305.5997   1413.46924     402.7647     305.5997
   1413.45398     399.4516     304.6972   1413.45398     399.4516     304.6972
   1413.43872     396.9084     302.7380   1413.43872     396.9084     302.7380
   1413.42346     394.9109     301.2107   1413.42346     394.9109     301.2107
   1413.40820     391.5947     299.8728   1413.40820     391.5947     299.8728
   1413.39294     389.6366     298.2040   1413.39294     389.6366     298.2040
   1413.37769     387.5008     297.3169   1413.37769     387.5008     297.3169
   1413.36243     385.1172     296.0245   1413.36243     385.1172     296.0245
   1413.34717     382.6935     294.8206   1413.34717     382.6935     294.8206
   1413.33191     379.9003     293.4969   1413.33191     379.9003     293.4969
   1413.31665     377.9860     291.8463   1413.31665     377.9860     291.8463
   1413.30139     375.9355     290.9439   1413.30139     375.9355     290.9439
   1413.28613     373.7530     289.8019   1413.28613     373.7530     289.8019
   1413.27087     371.1586     288.3092   1413.27087     371.1586     288.3092
   1413.25562     369.0760     286.4904   1413.25562     369.0760     286.4904
   1413.24036     366.6198     285.1166   1413.24036     366.6198     285.1166
   1413.22510     364.1863     284.3722   1413.22510     364.1863     284.3722
   1413.20984     362.4824     282.8651   1413.20984     362.4824     282.8651
   1413.19458     360.4529     281.7263   1413.19458     360.4529     281.7263
   1413.17932     358.2531     280.2827   1413.17932     358.2531     280.2827
   1413.16406     356.2947     279.1747   1413.16406     356.2947     279.1747
   1413.14880     354.1558     277.7313   1413.14880     354.1558     277.7313
   1413.13354     352.5459     276.9164   1413.13354     352.5459     276.9164
   1413.11829     350.5851     275.4885   1413.11829     350.5851     275.4885
   1413.10303     348.0408     274.5422   1413.10303     348.0408     274.5422
   1413.08777     346.2264     272.9425   1413.08777     346.2264     272.9425
   1413.07251     344.2700     272.2061   1413.07251     344.2700     272.2061
   1413.05725     342.3035     271.0355   1413.05725     342.3035     271.0355
   1413.04199     340.0916     269.5193   1413.04199     340.0916     269.5193
   1413.02673     339.0057     268.7807   1413.02673     339.0057     268.7807
   1413.01147     337.3326     267.3909   1413.01147     337.3326     267.3909
   1412.99622     335.7060     266.3537   1412.99622     335.7060     266.3537
   1412.98096     333.7310     265.3615   1412.98096     333.7310     265.3615
   1412.96570     331.7480     264.2316   1412.96570     331.7480     264.2316
   1412.95044     330.0329     262.7372   1412.95044     330.0329     262.7372
   1412.93518     328.6126     262.2460   1412.93518     328.6126     262.2460
   1412.91992     327.0417     261.0716   1412.91992     327.0417     261.0716
   1412.90466     325.0109     259.8947   1412.90466     325.0109     259.8947
   1412.88940     323.8717     258.9923   1412.88940     323.8717     258.9923
   1412.87415     322.0701     258.3582   1412.87415     322.0701     258.3582
   1412.85889     321.0707     257.4294   1412.85889     321.0707     257.4294
   1412.84363     319.1578     256.4804   1412.84363     319.1578     256.4804
   1412.82837     318.1918     255.4110   1412.82837     318.1918     255.4110
   1412.81311     316.6035     254.2354   1412.81311     316.6035     254.2354
   1412.79785     315.5916     253.5594   1412.79785     315.5916     253.5594
   1412.78259     314.2770     252.5950   1412.78259     314.2770     252.5950
   1412.76733     313.1091     252.1032   1412.76733     313.1091     252.1032
   1412.75208     312.0101     251.4677   1412.75208     312.0101     251.4677
   1412.73682     310.7533     250.3587   1412.73682     310.7533     250.3587
   1412.72156     310.2032     249.9871   1412.72156     310.2032     249.9871
   1412.70630     309.0693     249.1483   1412.70630     309.0693     249.1483
   1412.69104     307.9060     248.8624   1412.69104     307.9060     248.8624
   1412.67578     307.1310     248.0757   1412.67578     307.1310     248.0757
   1412.66052     305.9092     247.2768   1412.66052     305.9092     247.2768
   1412.64526     305.0186     246.6630   1412.64526     305.0186     246.6630
   1412.63000     304.4068     245.9369   1412.63000     304.4068     245.9369
   1412.61475     303.7033     245.5888   1412.61475     303.7033     245.5888
   1412.59949     302.5445     244.7254   1412.59949     302.5445     244.7254
   1412.58423     301.5065     244.5879   1412.58423     301.5065     244.5879
   1412.56897     301.6208     243.8503   1412.56897     301.6208     243.8503
   1412.55371     301.2703     243.4062   1412.55371     301.2703     243.4062
   1412.53845     300.3624     243.2906   1412.53845     300.3624     243.2906
   1412.52319     299.8220     242.8667   1412.52319     299.8220     242.8667
   1412.50793     299.2297     242.5307   1412.50793     299.2297     242.5307
   1412.49268     299.4695     242.4197   1412.49268     299.4695     242.4197
   1412.47742     298.7637     241.7969   1412.47742     298.7637     241.7969
   1412.46216     298.3927     242.0660   1412.46216     298.3927     242.0660
   1412.44690     297.9632     241.5124   1412.44690     297.9632     241.5124
   1412.43164     297.6358     241.4502   1412.43164     297.6358     241.4502
   1412.41638     297.5719     240.6868   1412.41638     297.5719     240.6868
   1412.40112     297.7358     241.2272   1412.40112     297.7358     241.2272
   1412.38586     297.3168     241.1272   1412.38586     297.3168     241.1272
   1412.37061     297.6114     240.8966   1412.37061     297.6114     240.8966
   1412.35535     296.8442     240.6620   1412.35535     296.8442     240.6620
   1412.34009     297.7445     241.2153   1412.34009     297.7445     241.2153
   1412.32483     297.2823     241.1657   1412.32483     297.2823     241.1657
   1412.30957     297.0983     241.0259   1412.30957     297.0983     241.0259
   1412.29431     297.8864     240.6224   1412.29431     297.8864     240.6224
   1412.27905     297.9168     241.4484   1412.27905     297.9168     241.4484
   1412.26379     298.3800     241.3571   1412.26379     298.3800     241.3571
   1412.24854     298.6732     241.7950   1412.24854     298.6732     241.7950
   1412.23328     298.8803     242.2298   1412.23328     298.8803     242.2298
   1412.21802     299.1948     242.2379   1412.21802     299.1948     242.2379
   1412.20276     299.8046     242.8199   1412.20276     299.8046     242.8199