#     FILENAME=!Skynet_57528_lach-cc-205_20610_21054.cyb.fits
#     BASENAME=Skynet_57528_lach-cc-205_20610_21054
#     SRC_NAME=lach-cc-205
#     OBSERVER=ccmadison16_9505
#     DATE_OBS=2016-05-20T20:24:52.500
#        OBSID=20610
#      SCANNUM=21054
#          MJD=57528.8516
#          UTC=73581
#     SCANTYPE=track
#     DATAMODE=HIRES
#     TUNEFREQ=1420.0000
# Actual_FREQ1=1420.0000
# Actual_FREQ2=1420.0000
#    LO1Tuning=6870.000
#     RFFILTER=1355_1435
#        OBSBW=-15.6250
#        NCHAN=1024 
#        FOCUS=37.0709
#           RA=06:36:52.44
#          DEC=07:03:17.56
#      RA(hrs)=6.614600
#     DEC(deg)=7.054900
#    AZIM(deg)=190.555
#    ELEV(deg)=58.028
#     IFattens=10.00, 9.00
#      WARNING=None
#    TCAL_XL1=7.9635
#    TCAL_YR1=9.1340
#    TCAL_XL2=7.9635
#    TCAL_YR2=9.1340
#     TRX_XL1=11.7060
#     TRX_YR1=11.7060
#     TRX_XL2=11.7060
#     TRX_YR2=11.7060
#        TAVE=1.0000
#Freq1(MHz)          XL1          YR1  Freq2(MHz)          XL2          YR2 

   1427.81250     369.2454     270.5481   1427.81250     369.2454     270.5481
   1427.79724     369.4907     271.5445   1427.79724     369.4907     271.5445
   1427.78198     370.4567     272.6641   1427.78198     370.4567     272.6641
   1427.76672     370.7098     272.8509   1427.76672     370.7098     272.8509
   1427.75146     371.4414     273.6835   1427.75146     371.4414     273.6835
   1427.73621     372.5078     274.7555   1427.73621     372.5078     274.7555
   1427.72095     373.4370     275.7215   1427.72095     373.4370     275.7215
   1427.70569     374.2007     276.5959   1427.70569     374.2007     276.5959
   1427.69043     375.0181     277.5101   1427.69043     375.0181     277.5101
   1427.67517     376.3951     278.9436   1427.67517     376.3951     278.9436
   1427.65991     377.8036     279.4829   1427.65991     377.8036     279.4829
   1427.64465     378.9070     280.9157   1427.64465     378.9070     280.9157
   1427.62939     379.6901     282.0643   1427.62939     379.6901     282.0643
   1427.61414     381.2732     283.1111   1427.61414     381.2732     283.1111
   1427.59888     382.7471     284.5078   1427.59888     382.7471     284.5078
   1427.58362     383.8799     285.1804   1427.58362     383.8799     285.1804
   1427.56836     385.0228     286.7654   1427.56836     385.0228     286.7654
   1427.55310     386.1011     288.0838   1427.55310     386.1011     288.0838
   1427.53784     387.9236     289.4283   1427.53784     387.9236     289.4283
   1427.52258     388.6406     290.4302   1427.52258     388.6406     290.4302
   1427.50732     390.6288     291.7352   1427.50732     390.6288     291.7352
   1427.49207     392.6277     293.6769   1427.49207     392.6277     293.6769
   1427.47681     394.6894     294.9484   1427.47681     394.6894     294.9484
   1427.46155     396.3253     297.0841   1427.46155     396.3253     297.0841
   1427.44629     397.3757     297.8768   1427.44629     397.3757     297.8768
   1427.43103     399.5183     299.9281   1427.43103     399.5183     299.9281
   1427.41577     400.9925     301.7233   1427.41577     400.9925     301.7233
   1427.40051     402.9950     302.7775   1427.40051     402.9950     302.7775
   1427.38525     405.2277     304.4045   1427.38525     405.2277     304.4045
   1427.37000     407.4890     306.4706   1427.37000     407.4890     306.4706
   1427.35474     409.7434     308.4171   1427.35474     409.7434     308.4171
   1427.33948     410.9762     310.0481   1427.33948     410.9762     310.0481
   1427.32422     413.1517     311.6565   1427.32422     413.1517     311.6565
   1427.30896     416.0286     314.1004   1427.30896     416.0286     314.1004
   1427.29370     417.7721     315.2598   1427.29370     417.7721     315.2598
   1427.27844     419.8790     317.5649   1427.27844     419.8790     317.5649
   1427.26318     422.4398     320.0901   1427.26318     422.4398     320.0901
   1427.24792     424.2448     321.6609   1427.24792     424.2448     321.6609
   1427.23267     426.3514     323.2923   1427.23267     426.3514     323.2923
   1427.21741     429.4886     325.6461   1427.21741     429.4886     325.6461
   1427.20215     431.7051     328.0572   1427.20215     431.7051     328.0572
   1427.18689     433.6197     330.0173   1427.18689     433.6197     330.0173
   1427.17163     435.8562     332.4930   1427.17163     435.8562     332.4930
   1427.15637     438.6285     334.0146   1427.15637     438.6285     334.0146
   1427.14111     441.3571     336.1567   1427.14111     441.3571     336.1567
   1427.12585     444.3160     338.2166   1427.12585     444.3160     338.2166
   1427.11060     446.0869     340.7240   1427.11060     446.0869     340.7240
   1427.09534     449.3463     342.6938   1427.09534     449.3463     342.6938
   1427.08008     451.3069     345.0133   1427.08008     451.3069     345.0133
   1427.06482     454.1505     347.9737   1427.06482     454.1505     347.9737
   1427.04956     456.8438     349.7414   1427.04956     456.8438     349.7414
   1427.03430     459.8646     352.0622   1427.03430     459.8646     352.0622
   1427.01904     462.4810     354.4527   1427.01904     462.4810     354.4527
   1427.00378     465.1342     356.4321   1427.00378     465.1342     356.4321
   1426.98853     467.9805     358.7863   1426.98853     467.9805     358.7863
   1426.97327     470.5773     361.1922   1426.97327     470.5773     361.1922
   1426.95801     473.1926     364.3069   1426.95801     473.1926     364.3069
   1426.94275     477.1999     366.4526   1426.94275     477.1999     366.4526
   1426.92749     478.2178     368.4083   1426.92749     478.2178     368.4083
   1426.91223     481.7136     370.3786   1426.91223     481.7136     370.3786
   1426.89697     486.0268     374.3408   1426.89697     486.0268     374.3408
   1426.88171     487.8131     376.3162   1426.88171     487.8131     376.3162
   1426.86646     490.6802     378.4990   1426.86646     490.6802     378.4990
   1426.85120     493.8794     381.1657   1426.85120     493.8794     381.1657
   1426.83594     496.4401     383.2850   1426.83594     496.4401     383.2850
   1426.82068     499.6197     386.1529   1426.82068     499.6197     386.1529
   1426.80542     502.7197     388.4137   1426.80542     502.7197     388.4137
   1426.79016     505.4437     391.7240   1426.79016     505.4437     391.7240
   1426.77490     508.6389     393.5409   1426.77490     508.6389     393.5409
   1426.75964     511.6912     396.4062   1426.75964     511.6912     396.4062
   1426.74438     514.8954     398.8224   1426.74438     514.8954     398.8224
   1426.72913     516.9478     401.2001   1426.72913     516.9478     401.2001
   1426.71387     521.2161     403.6711   1426.71387     521.2161     403.6711
   1426.69861     523.0717     406.9523   1426.69861     523.0717     406.9523
   1426.68335     525.5402     409.1946   1426.68335     525.5402     409.1946
   1426.66809     529.7415     412.3134   1426.66809     529.7415     412.3134
   1426.65283     532.5914     414.8121   1426.65283     532.5914     414.8121
   1426.63757     534.8797     417.8318   1426.63757     534.8797     417.8318
   1426.62231     538.8010     427.2276   1426.62231     538.8010     427.2276
   1426.60706     540.5408     422.1261   1426.60706     540.5408     422.1261
   1426.59180     544.2177     425.0325   1426.59180     544.2177     425.0325
   1426.57654     547.6315     426.9538   1426.57654     547.6315     426.9538
   1426.56128     551.0167     430.3318   1426.56128     551.0167     430.3318
   1426.54602     553.4535     433.4348   1426.54602     553.4535     433.4348
   1426.53076     556.1197     435.2281   1426.53076     556.1197     435.2281
   1426.51550     558.9045     438.2014   1426.51550     558.9045     438.2014
   1426.50024     561.6238     440.4520   1426.50024     561.6238     440.4520
   1426.48499     565.1124     443.4641   1426.48499     565.1124     443.4641
   1426.46973     568.3345     445.5513   1426.46973     568.3345     445.5513
   1426.45447     570.2712     448.2781   1426.45447     570.2712     448.2781
   1426.43921     573.1575     450.3767   1426.43921     573.1575     450.3767
   1426.42395     577.5582     453.1483   1426.42395     577.5582     453.1483
   1426.40869     579.7985     456.2959   1426.40869     579.7985     456.2959
   1426.39343     582.1694     457.8715   1426.39343     582.1694     457.8715
   1426.37817     585.4470     461.5895   1426.37817     585.4470     461.5895
   1426.36292     587.5339     463.7332   1426.36292     587.5339     463.7332
   1426.34766     591.5959     466.3312   1426.34766     591.5959     466.3312
   1426.33240     593.0500     469.3987   1426.33240     593.0500     469.3987
   1426.31714     596.8691     470.8758   1426.31714     596.8691     470.8758
   1426.30188     599.2695     473.6894   1426.30188     599.2695     473.6894
   1426.28662     602.6129     476.4558   1426.28662     602.6129     476.4558
   1426.27136     605.4152     478.5378   1426.27136     605.4152     478.5378
   1426.25610     608.0984     481.5583   1426.25610     608.0984     481.5583
   1426.24084     609.3640     483.6532   1426.24084     609.3640     483.6532
   1426.22559     612.0458     486.6240   1426.22559     612.0458     486.6240
   1426.21033     615.7442     488.2761   1426.21033     615.7442     488.2761
   1426.19507     618.4517     491.2494   1426.19507     618.4517     491.2494
   1426.17981     620.4284     492.7085   1426.17981     620.4284     492.7085
   1426.16455     623.6458     495.2291   1426.16455     623.6458     495.2291
   1426.14929     626.1287     498.6429   1426.14929     626.1287     498.6429
   1426.13403     629.0746     500.4122   1426.13403     629.0746     500.4122
   1426.11877     631.4625     503.4142   1426.11877     631.4625     503.4142
   1426.10352     633.6035     506.0457   1426.10352     633.6035     506.0457
   1426.08826     636.1353     507.5858   1426.08826     636.1353     507.5858
   1426.07300     638.1206     510.5262   1426.07300     638.1206     510.5262
   1426.05774     641.4124     512.3168   1426.05774     641.4124     512.3168
   1426.04248     643.3558     514.4951   1426.04248     643.3558     514.4951
   1426.02722     646.0626     516.4378   1426.02722     646.0626     516.4378
   1426.01196     648.5183     519.0571   1426.01196     648.5183     519.0571
   1425.99670     650.5870     520.7900   1425.99670     650.5870     520.7900
   1425.98145     653.5528     523.2170   1425.98145     653.5528     523.2170
   1425.96619     655.2605     525.0148   1425.96619     655.2605     525.0148
   1425.95093     657.0572     529.4368   1425.95093     657.0572     529.4368
   1425.93567     660.1913     530.0339   1425.93567     660.1913     530.0339
   1425.92041     660.9407     533.1500   1425.92041     660.9407     533.1500
   1425.90515     663.1336     534.8104   1425.90515     663.1336     534.8104
   1425.88989     665.3634     536.9732   1425.88989     665.3634     536.9732
   1425.87463     667.7116     538.7094   1425.87463     667.7116     538.7094
   1425.85938     669.2379     541.2393   1425.85938     669.2379     541.2393
   1425.84412     672.3149     542.0798   1425.84412     672.3149     542.0798
   1425.82886     674.6948     544.2252   1425.82886     674.6948     544.2252
   1425.81360     675.4995     545.9842   1425.81360     675.4995     545.9842
   1425.79834     678.3925     549.0505   1425.79834     678.3925     549.0505
   1425.78308     679.4927     550.4213   1425.78308     679.4927     550.4213
   1425.76782     682.1858     553.0237   1425.76782     682.1858     553.0237
   1425.75256     683.2624     555.0305   1425.75256     683.2624     555.0305
   1425.73730     684.8224     557.1356   1425.73730     684.8224     557.1356
   1425.72205     688.0319     557.8294   1425.72205     688.0319     557.8294
   1425.70679     688.8472     559.6090   1425.70679     688.8472     559.6090
   1425.69153     691.1118     561.9681   1425.69153     691.1118     561.9681
   1425.67627     691.6905     564.3686   1425.67627     691.6905     564.3686
   1425.66101     693.4578     565.8798   1425.66101     693.4578     565.8798
   1425.64575     694.9036     568.1617   1425.64575     694.9036     568.1617
   1425.63049     696.7092     568.7061   1425.63049     696.7092     568.7061
   1425.61523     698.6108     570.8858   1425.61523     698.6108     570.8858
   1425.59998     700.0714     573.6252   1425.59998     700.0714     573.6252
   1425.58472     701.7173     575.3272   1425.58472     701.7173     575.3272
   1425.56946     702.2800     576.1631   1425.56946     702.2800     576.1631
   1425.55420     704.3843     577.5909   1425.55420     704.3843     577.5909
   1425.53894     707.0837     578.5020   1425.53894     707.0837     578.5020
   1425.52368     707.1302     581.5068   1425.52368     707.1302     581.5068
   1425.50842     709.2561     581.9986   1425.50842     709.2561     581.9986
   1425.49316     709.6003     584.2049   1425.49316     709.6003     584.2049
   1425.47791     711.5912     585.1143   1425.47791     711.5912     585.1143
   1425.46265     712.3044     587.6494   1425.46265     712.3044     587.6494
   1425.44739     714.4609     589.9055   1425.44739     714.4609     589.9055
   1425.43213     715.6900     589.9799   1425.43213     715.6900     589.9799
   1425.41687     716.5613     593.0566   1425.41687     716.5613     593.0566
   1425.40161     718.2292     592.7126   1425.40161     718.2292     592.7126
   1425.38635     719.9617     595.0310   1425.38635     719.9617     595.0310
   1425.37109     718.2537     597.1536   1425.37109     718.2537     597.1536
   1425.35583     721.5384     596.7833   1425.35583     721.5384     596.7833
   1425.34058     721.2779     598.5515   1425.34058     721.2779     598.5515
   1425.32532     722.5167     599.6989   1425.32532     722.5167     599.6989
   1425.31006     724.8438     601.9350   1425.31006     724.8438     601.9350
   1425.29480     723.3267     603.4008   1425.29480     723.3267     603.4008
   1425.27954     725.7288     604.0167   1425.27954     725.7288     604.0167
   1425.26428     727.0423     605.6216   1425.26428     727.0423     605.6216
   1425.24902     727.7683     606.1652   1425.24902     727.7683     606.1652
   1425.23376     728.0792     608.0912   1425.23376     728.0792     608.0912
   1425.21851     728.6224     610.2088   1425.21851     728.6224     610.2088
   1425.20325     730.0327     609.4893   1425.20325     730.0327     609.4893
   1425.18799     730.1509     611.1661   1425.18799     730.1509     611.1661
   1425.17273     730.3674     611.5489   1425.17273     730.3674     611.5489
   1425.15747     731.6251     613.6939   1425.15747     731.6251     613.6939
   1425.14221     732.6578     614.7745   1425.14221     732.6578     614.7745
   1425.12695     734.7161     617.5775   1425.12695     734.7161     617.5775
   1425.11169     733.7702     616.8734   1425.11169     733.7702     616.8734
   1425.09644     733.4552     617.8679   1425.09644     733.4552     617.8679
   1425.08118     734.6464     618.6652   1425.08118     734.6464     618.6652
   1425.06592     735.4949     619.3817   1425.06592     735.4949     619.3817
   1425.05066     735.6191     620.5120   1425.05066     735.6191     620.5120
   1425.03540     735.9500     621.4941   1425.03540     735.9500     621.4941
   1425.02014     739.1172     623.5424   1425.02014     739.1172     623.5424
   1425.00488     737.9100     624.7028   1425.00488     737.9100     624.7028
   1424.98962     738.0886     624.4575   1424.98962     738.0886     624.4575
   1424.97437     738.5367     625.3191   1424.97437     738.5367     625.3191
   1424.95911     737.8721     626.0639   1424.95911     737.8721     626.0639
   1424.94385     739.3904     626.3835   1424.94385     739.3904     626.3835
   1424.92859     738.7798     626.4319   1424.92859     738.7798     626.4319
   1424.91333     739.1652     627.9193   1424.91333     739.1652     627.9193
   1424.89807     739.6523     629.8063   1424.89807     739.6523     629.8063
   1424.88281     740.2465     629.2985   1424.88281     740.2465     629.2985
   1424.86755     741.1525     630.5108   1424.86755     741.1525     630.5108
   1424.85229     740.1849     630.5081   1424.85229     740.1849     630.5081
   1424.83704     740.5070     631.3955   1424.83704     740.5070     631.3955
   1424.82178     741.7232     632.1992   1424.82178     741.7232     632.1992
   1424.80652     742.0609     633.7039   1424.80652     742.0609     633.7039
   1424.79126     741.8877     633.1512   1424.79126     741.8877     633.1512
   1424.77600     742.2407     634.2884   1424.77600     742.2407     634.2884
   1424.76074     741.8896     635.3325   1424.76074     741.8896     635.3325
   1424.74548     742.1591     634.8557   1424.74548     742.1591     634.8557
   1424.73022     742.8527     636.3254   1424.73022     742.8527     636.3254
   1424.71497     742.5977     636.6445   1424.71497     742.5977     636.6445
   1424.69971     742.4050     636.7338   1424.69971     742.4050     636.7338
   1424.68445     741.3129     637.9002   1424.68445     741.3129     637.9002
   1424.66919     742.5530     638.7769   1424.66919     742.5530     638.7769
   1424.65393     742.0417     638.9351   1424.65393     742.0417     638.9351
   1424.63867     742.3186     638.4654   1424.63867     742.3186     638.4654
   1424.62341     743.6886     639.9800   1424.62341     743.6886     639.9800
   1424.60815     742.4387     641.1362   1424.60815     742.4387     641.1362
   1424.59290     742.4061     639.5178   1424.59290     742.4061     639.5178
   1424.57764     741.3759     640.7408   1424.57764     741.3759     640.7408
   1424.56238     741.9711     641.1469   1424.56238     741.9711     641.1469
   1424.54712     741.6485     641.8338   1424.54712     741.6485     641.8338
   1424.53186     741.8638     641.0226   1424.53186     741.8638     641.0226
   1424.51660     741.9029     640.1698   1424.51660     741.9029     640.1698
   1424.50134     741.5977     642.6215   1424.50134     741.5977     642.6215
   1424.48608     742.5516     641.8845   1424.48608     742.5516     641.8845
   1424.47083     740.9916     642.1864   1424.47083     740.9916     642.1864
   1424.45557     742.1165     643.0345   1424.45557     742.1165     643.0345
   1424.44031     740.9391     642.1508   1424.44031     740.9391     642.1508
   1424.42505     739.9098     643.1053   1424.42505     739.9098     643.1053
   1424.40979     739.8615     644.1208   1424.40979     739.8615     644.1208
   1424.39453     740.6732     643.6520   1424.39453     740.6732     643.6520
   1424.37927     740.2427     644.3827   1424.37927     740.2427     644.3827
   1424.36401     740.1825     642.7214   1424.36401     740.1825     642.7214
   1424.34875     740.5500     644.4664   1424.34875     740.5500     644.4664
   1424.33350     740.1863     645.6550   1424.33350     740.1863     645.6550
   1424.31824     739.6022     643.9523   1424.31824     739.6022     643.9523
   1424.30298     739.6376     644.1945   1424.30298     739.6376     644.1945
   1424.28772     739.4703     644.3782   1424.28772     739.4703     644.3782
   1424.27246     739.1877     644.0009   1424.27246     739.1877     644.0009
   1424.25720     738.4729     644.2941   1424.25720     738.4729     644.2941
   1424.24194     738.3812     645.8505   1424.24194     738.3812     645.8505
   1424.22668     738.0121     643.5151   1424.22668     738.0121     643.5151
   1424.21143     738.7885     644.2798   1424.21143     738.7885     644.2798
   1424.19617     737.0392     644.6943   1424.19617     737.0392     644.6943
   1424.18091     737.7446     645.7184   1424.18091     737.7446     645.7184
   1424.16565     737.7917     644.9071   1424.16565     737.7917     644.9071
   1424.15039     737.8034     644.7096   1424.15039     737.8034     644.7096
   1424.13513     736.5091     643.6847   1424.13513     736.5091     643.6847
   1424.11987     736.3892     644.5064   1424.11987     736.3892     644.5064
   1424.10461     735.5781     644.5576   1424.10461     735.5781     644.5576
   1424.08936     736.3818     644.8943   1424.08936     736.3818     644.8943
   1424.07410     735.0547     643.6089   1424.07410     735.0547     643.6089
   1424.05884     734.9276     643.5367   1424.05884     734.9276     643.5367
   1424.04358     734.7307     643.6030   1424.04358     734.7307     643.6030
   1424.02832     735.1216     644.3755   1424.02832     735.1216     644.3755
   1424.01306     734.5197     643.9172   1424.01306     734.5197     643.9172
   1423.99780     734.0097     642.9557   1423.99780     734.0097     642.9557
   1423.98254     733.7448     643.4540   1423.98254     733.7448     643.4540
   1423.96729     733.0636     642.8943   1423.96729     733.0636     642.8943
   1423.95203     733.7695     643.2113   1423.95203     733.7695     643.2113
   1423.93677     732.4352     642.0414   1423.93677     732.4352     642.0414
   1423.92151     732.1293     641.9150   1423.92151     732.1293     641.9150
   1423.90625     731.6276     640.6185   1423.90625     731.6276     640.6185
   1423.89099     731.0802     641.1591   1423.89099     731.0802     641.1591
   1423.87573     730.1387     641.7702   1423.87573     730.1387     641.7702
   1423.86047     731.1425     640.2602   1423.86047     731.1425     640.2602
   1423.84521     730.0612     639.9392   1423.84521     730.0612     639.9392
   1423.82996     730.3096     639.6955   1423.82996     730.3096     639.6955
   1423.81470     728.9560     639.2095   1423.81470     728.9560     639.2095
   1423.79944     729.5526     639.2712   1423.79944     729.5526     639.2712
   1423.78418     728.3906     638.1229   1423.78418     728.3906     638.1229
   1423.76892     729.0902     638.2444   1423.76892     729.0902     638.2444
   1423.75366     728.2696     638.0746   1423.75366     728.2696     638.0746
   1423.73840     726.9915     638.4738   1423.73840     726.9915     638.4738
   1423.72314     727.9478     636.2469   1423.72314     727.9478     636.2469
   1423.70789     727.4177     637.2915   1423.70789     727.4177     637.2915
   1423.69263     726.1946     636.4841   1423.69263     726.1946     636.4841
   1423.67737     726.6544     635.5632   1423.67737     726.6544     635.5632
   1423.66211     726.3175     636.2318   1423.66211     726.3175     636.2318
   1423.64685     725.9363     635.6216   1423.64685     725.9363     635.6216
   1423.63159     723.9487     635.2958   1423.63159     723.9487     635.2958
   1423.61633     724.2023     634.4104   1423.61633     724.2023     634.4104
   1423.60107     724.5450     633.8220   1423.60107     724.5450     633.8220
   1423.58582     724.4069     633.4877   1423.58582     724.4069     633.4877
   1423.57056     723.9564     632.9089   1423.57056     723.9564     632.9089
   1423.55530     723.7842     632.3206   1423.55530     723.7842     632.3206
   1423.54004     722.0566     631.2817   1423.54004     722.0566     631.2817
   1423.52478     722.7349     630.6763   1423.52478     722.7349     630.6763
   1423.50952     721.3060     631.3278   1423.50952     721.3060     631.3278
   1423.49426     721.5696     629.7772   1423.49426     721.5696     629.7772
   1423.47900     721.8140     628.6230   1423.47900     721.8140     628.6230
   1423.46375     721.0674     627.7288   1423.46375     721.0674     627.7288
   1423.44849     720.8076     627.9534   1423.44849     720.8076     627.9534
   1423.43323     720.7997     626.6213   1423.43323     720.7997     626.6213
   1423.41797     720.5525     627.0724   1423.41797     720.5525     627.0724
   1423.40271     719.7810     626.4963   1423.40271     719.7810     626.4963
   1423.38745     720.0443     625.7870   1423.38745     720.0443     625.7870
   1423.37219     718.9109     625.4232   1423.37219     718.9109     625.4232
   1423.35693     717.8157     624.7452   1423.35693     717.8157     624.7452
   1423.34167     719.6951     624.0462   1423.34167     719.6951     624.0462
   1423.32642     717.9663     621.9482   1423.32642     717.9663     621.9482
   1423.31116     717.5526     622.5207   1423.31116     717.5526     622.5207
   1423.29590     716.8240     621.8174   1423.29590     716.8240     621.8174
   1423.28064     718.3323     621.3732   1423.28064     718.3323     621.3732
   1423.26538     716.6311     620.9363   1423.26538     716.6311     620.9363
   1423.25012     716.4150     619.7928   1423.25012     716.4150     619.7928
   1423.23486     716.5756     619.2263   1423.23486     716.5756     619.2263
   1423.21960     715.4999     618.0634   1423.21960     715.4999     618.0634
   1423.20435     716.6332     617.4951   1423.20435     716.6332     617.4951
   1423.18909     715.3692     617.0410   1423.18909     715.3692     617.0410
   1423.17383     713.9720     615.8848   1423.17383     713.9720     615.8848
   1423.15857     714.9211     615.4674   1423.15857     714.9211     615.4674
   1423.14331     713.7118     615.0527   1423.14331     713.7118     615.0527
   1423.12805     713.1000     612.7049   1423.12805     713.1000     612.7049
   1423.11279     714.8798     612.7697   1423.11279     714.8798     612.7697
   1423.09753     713.9875     612.2617   1423.09753     713.9875     612.2617
   1423.08228     713.2006     611.1213   1423.08228     713.2006     611.1213
   1423.06702     712.9158     610.4241   1423.06702     712.9158     610.4241
   1423.05176     711.9518     609.4065   1423.05176     711.9518     609.4065
   1423.03650     712.1381     608.0073   1423.03650     712.1381     608.0073
   1423.02124     711.1079     607.8663   1423.02124     711.1079     607.8663
   1423.00598     711.6307     607.4445   1423.00598     711.6307     607.4445
   1422.99072     711.0178     605.7986   1422.99072     711.0178     605.7986
   1422.97546     711.5750     605.3997   1422.97546     711.5750     605.3997
   1422.96021     711.1830     604.6087   1422.96021     711.1830     604.6087
   1422.94495     710.4921     603.4849   1422.94495     710.4921     603.4849
   1422.92969     710.3011     602.8886   1422.92969     710.3011     602.8886
   1422.91443     709.6042     601.2074   1422.91443     709.6042     601.2074
   1422.89917     708.8571     600.9257   1422.89917     708.8571     600.9257
   1422.88391     708.1223     600.0988   1422.88391     708.1223     600.0988
   1422.86865     709.5817     599.5518   1422.86865     709.5817     599.5518
   1422.85339     708.3510     598.6979   1422.85339     708.3510     598.6979
   1422.83813     708.6491     597.8161   1422.83813     708.6491     597.8161
   1422.82288     708.4988     596.0772   1422.82288     708.4988     596.0772
   1422.80762     707.7522     596.1443   1422.80762     707.7522     596.1443
   1422.79236     707.9197     595.5939   1422.79236     707.9197     595.5939
   1422.77710     707.0750     595.0422   1422.77710     707.0750     595.0422
   1422.76184     705.6898     593.8140   1422.76184     705.6898     593.8140
   1422.74658     705.7147     592.1180   1422.74658     705.7147     592.1180
   1422.73132     706.2902     591.3253   1422.73132     706.2902     591.3253
   1422.71606     706.0432     590.8418   1422.71606     706.0432     590.8418
   1422.70081     705.7623     590.3511   1422.70081     705.7623     590.3511
   1422.68555     705.0136     589.4367   1422.68555     705.0136     589.4367
   1422.67029     705.4742     587.5298   1422.67029     705.4742     587.5298
   1422.65503     705.5193     586.6616   1422.65503     705.5193     586.6616
   1422.63977     704.2525     586.1911   1422.63977     704.2525     586.1911
   1422.62451     703.9796     585.0200   1422.62451     703.9796     585.0200
   1422.60925     703.8513     583.7427   1422.60925     703.8513     583.7427
   1422.59399     705.1375     582.5302   1422.59399     705.1375     582.5302
   1422.57874     704.1105     581.7731   1422.57874     704.1105     581.7731
   1422.56348     704.5831     580.2378   1422.56348     704.5831     580.2378
   1422.54822     704.6578     579.5004   1422.54822     704.6578     579.5004
   1422.53296     702.6061     579.6552   1422.53296     702.6061     579.6552
   1422.51770     703.3594     578.8370   1422.51770     703.3594     578.8370
   1422.50244     702.8500     577.4024   1422.50244     702.8500     577.4024
   1422.48718     702.9294     576.3973   1422.48718     702.9294     576.3973
   1422.47192     703.2864     574.7887   1422.47192     703.2864     574.7887
   1422.45667     702.6911     574.6389   1422.45667     702.6911     574.6389
   1422.44141     702.5664     573.5812   1422.44141     702.5664     573.5812
   1422.42615     702.0083     572.5120   1422.42615     702.0083     572.5120
   1422.41089     701.3739     571.4603   1422.41089     701.3739     571.4603
   1422.39563     701.8247     570.4407   1422.39563     701.8247     570.4407
   1422.38037     701.4209     569.5611   1422.38037     701.4209     569.5611
   1422.36511     699.9790     568.0742   1422.36511     699.9790     568.0742
   1422.34985     699.6796     567.2454   1422.34985     699.6796     567.2454
   1422.33459     700.9513     567.0245   1422.33459     700.9513     567.0245
   1422.31934     701.1041     565.4700   1422.31934     701.1041     565.4700
   1422.30408     700.2958     563.5087   1422.30408     700.2958     563.5087
   1422.28882     699.8733     562.2490   1422.28882     699.8733     562.2490
   1422.27356     700.5110     562.6153   1422.27356     700.5110     562.6153
   1422.25830     699.6055     561.8051   1422.25830     699.6055     561.8051
   1422.24304     701.6434     560.8458   1422.24304     701.6434     560.8458
   1422.22778     700.1262     559.8961   1422.22778     700.1262     559.8961
   1422.21252     699.0096     557.9482   1422.21252     699.0096     557.9482
   1422.19727     697.9236     557.1771   1422.19727     697.9236     557.1771
   1422.18201     698.5023     556.8662   1422.18201     698.5023     556.8662
   1422.16675     699.4213     554.7327   1422.16675     699.4213     554.7327
   1422.15149     698.0597     553.8867   1422.15149     698.0597     553.8867
   1422.13623     698.3168     553.5275   1422.13623     698.3168     553.5275
   1422.12097     697.3521     552.1784   1422.12097     697.3521     552.1784
   1422.10571     696.6527     550.8076   1422.10571     696.6527     550.8076
   1422.09045     697.9912     549.2863   1422.09045     697.9912     549.2863
   1422.07520     697.1013     548.8116   1422.07520     697.1013     548.8116
   1422.05994     698.1970     547.7794   1422.05994     698.1970     547.7794
   1422.04468     695.8589     546.6586   1422.04468     695.8589     546.6586
   1422.02942     697.2451     545.9536   1422.02942     697.2451     545.9536
   1422.01416     697.4587     544.5854   1422.01416     697.4587     544.5854
   1421.99890     696.1748     542.4717   1421.99890     696.1748     542.4717
   1421.98364     696.5103     541.6918   1421.98364     696.5103     541.6918
   1421.96838     696.2004     540.8515   1421.96838     696.2004     540.8515
   1421.95312     696.1303     540.6522   1421.95312     696.1303     540.6522
   1421.93787     695.5543     539.2841   1421.93787     695.5543     539.2841
   1421.92261     694.3768     538.0029   1421.92261     694.3768     538.0029
   1421.90735     696.6279     537.4926   1421.90735     696.6279     537.4926
   1421.89209     694.7328     536.5768   1421.89209     694.7328     536.5768
   1421.87683     694.7901     534.5935   1421.87683     694.7901     534.5935
   1421.86157     693.9761     534.1276   1421.86157     693.9761     534.1276
   1421.84631     695.2513     533.7382   1421.84631     695.2513     533.7382
   1421.83105     693.1215     531.7991   1421.83105     693.1215     531.7991
   1421.81580     693.5483     530.4869   1421.81580     693.5483     530.4869
   1421.80054     693.0647     529.5685   1421.80054     693.0647     529.5685
   1421.78528     693.7274     528.3701   1421.78528     693.7274     528.3701
   1421.77002     693.6153     527.2537   1421.77002     693.6153     527.2537
   1421.75476     692.8956     526.7756   1421.75476     692.8956     526.7756
   1421.73950     693.3188     524.1536   1421.73950     693.3188     524.1536
   1421.72424     692.0426     524.4562   1421.72424     692.0426     524.4562
   1421.70898     692.6257     522.6801   1421.70898     692.6257     522.6801
   1421.69373     691.9385     521.9107   1421.69373     691.9385     521.9107
   1421.67847     692.7153     521.5241   1421.67847     692.7153     521.5241
   1421.66321     691.2555     519.1529   1421.66321     691.2555     519.1529
   1421.64795     691.4370     518.3936   1421.64795     691.4370     518.3936
   1421.63269     691.0730     517.8115   1421.63269     691.0730     517.8115
   1421.61743     690.8691     516.3159   1421.61743     690.8691     516.3159
   1421.60217     690.3061     515.0280   1421.60217     690.3061     515.0280
   1421.58691     690.4587     514.8268   1421.58691     690.4587     514.8268
   1421.57166     690.2936     512.8144   1421.57166     690.2936     512.8144
   1421.55640     691.0876     511.5579   1421.55640     691.0876     511.5579
   1421.54114     689.7890     510.9932   1421.54114     689.7890     510.9932
   1421.52588     689.7656     509.6889   1421.52588     689.7656     509.6889
   1421.51062     690.0782     508.8356   1421.51062     690.0782     508.8356
   1421.49536     689.4980     508.8496   1421.49536     689.4980     508.8496
   1421.48010     688.5214     506.7771   1421.48010     688.5214     506.7771
   1421.46484     689.5764     505.6398   1421.46484     689.5764     505.6398
   1421.44958     689.0436     505.2934   1421.44958     689.0436     505.2934
   1421.43433     687.8936     503.6141   1421.43433     687.8936     503.6141
   1421.41907     688.0305     503.0818   1421.41907     688.0305     503.0818
   1421.40381     688.6598     502.0637   1421.40381     688.6598     502.0637
   1421.38855     688.0131     500.2934   1421.38855     688.0131     500.2934
   1421.37329     687.1031     499.1349   1421.37329     687.1031     499.1349
   1421.35803     688.5320     498.5335   1421.35803     688.5320     498.5335
   1421.34277     688.3391     497.1556   1421.34277     688.3391     497.1556
   1421.32751     687.5612     496.1031   1421.32751     687.5612     496.1031
   1421.31226     688.1990     495.3213   1421.31226     688.1990     495.3213
   1421.29700     686.1368     493.2829   1421.29700     686.1368     493.2829
   1421.28174     687.0260     492.4634   1421.28174     687.0260     492.4634
   1421.26648     686.4576     491.0402   1421.26648     686.4576     491.0402
   1421.25122     684.8086     491.4837   1421.25122     684.8086     491.4837
   1421.23596     684.7762     489.5324   1421.23596     684.7762     489.5324
   1421.22070     684.6418     488.5306   1421.22070     684.6418     488.5306
   1421.20544     685.0547     487.0457   1421.20544     685.0547     487.0457
   1421.19019     685.2408     487.0847   1421.19019     685.2408     487.0847
   1421.17493     683.4288     485.0172   1421.17493     683.4288     485.0172
   1421.15967     684.7416     484.1288   1421.15967     684.7416     484.1288
   1421.14441     684.1298     483.3414   1421.14441     684.1298     483.3414
   1421.12915     684.0852     482.0547   1421.12915     684.0852     482.0547
   1421.11389     683.8135     481.1501   1421.11389     683.8135     481.1501
   1421.09863     683.9861     479.7823   1421.09863     683.9861     479.7823
   1421.08337     683.0328     478.9977   1421.08337     683.0328     478.9977
   1421.06812     683.3578     477.8263   1421.06812     683.3578     477.8263
   1421.05286     682.5374     477.0012   1421.05286     682.5374     477.0012
   1421.03760     682.7319     475.8466   1421.03760     682.7319     475.8466
   1421.02234     682.1095     474.2935   1421.02234     682.1095     474.2935
   1421.00708     682.3876     474.0943   1421.00708     682.3876     474.0943
   1420.99182     681.9184     473.1752   1420.99182     681.9184     473.1752
   1420.97656     681.8549     471.8972   1420.97656     681.8549     471.8972
   1420.96130     680.6380     471.4685   1420.96130     680.6380     471.4685
   1420.94604     681.5045     470.7281   1420.94604     681.5045     470.7281
   1420.93079     681.3428     469.4502   1420.93079     681.3428     469.4502
   1420.91553     679.8459     468.2977   1420.91553     679.8459     468.2977
   1420.90027     680.6104     467.4716   1420.90027     680.6104     467.4716
   1420.88501     680.1617     466.6737   1420.88501     680.1617     466.6737
   1420.86975     680.1954     465.5817   1420.86975     680.1954     465.5817
   1420.85449     679.9798     464.1272   1420.85449     679.9798     464.1272
   1420.83923     679.6201     463.5845   1420.83923     679.6201     463.5845
   1420.82397     679.3051     463.3934   1420.82397     679.3051     463.3934
   1420.80872     680.1488     462.5070   1420.80872     680.1488     462.5070
   1420.79346     678.8826     460.9665   1420.79346     678.8826     460.9665
   1420.77820     679.4818     460.6055   1420.77820     679.4818     460.6055
   1420.76294     679.7756     459.0150   1420.76294     679.7756     459.0150
   1420.74768     678.8469     458.4282   1420.74768     678.8469     458.4282
   1420.73242     678.0301     458.2073   1420.73242     678.0301     458.2073
   1420.71716     679.6590     457.0482   1420.71716     679.6590     457.0482
   1420.70190     679.5317     456.9254   1420.70190     679.5317     456.9254
   1420.68665     679.1017     455.2911   1420.68665     679.1017     455.2911
   1420.67139     677.8454     454.8341   1420.67139     677.8454     454.8341
   1420.65613     678.8386     453.7926   1420.65613     678.8386     453.7926
   1420.64087     678.1069     453.9116   1420.64087     678.1069     453.9116
   1420.62561     678.3815     451.7253   1420.62561     678.3815     451.7253
   1420.61035     678.1100     451.6771   1420.61035     678.1100     451.6771
   1420.59509     678.6927     451.0980   1420.59509     678.6927     451.0980
   1420.57983     679.1235     450.1467   1420.57983     679.1235     450.1467
   1420.56458     679.6071     449.4958   1420.56458     679.6071     449.4958
   1420.54932     680.4063     450.4224   1420.54932     680.4063     450.4224
   1420.53406     681.0804     449.6063   1420.53406     681.0804     449.6063
   1420.51880     680.7029     449.7257   1420.51880     680.7029     449.7257
   1420.50354     681.3763     448.8073   1420.50354     681.3763     448.8073
   1420.48828     682.1939     447.4354   1420.48828     682.1939     447.4354
   1420.47302     681.9702     446.9390   1420.47302     681.9702     446.9390
   1420.45776     681.0320     446.3005   1420.45776     681.0320     446.3005
   1420.44250     680.8812     445.3345   1420.44250     680.8812     445.3345
   1420.42725     682.5092     445.1906   1420.42725     682.5092     445.1906
   1420.41199     682.5383     444.9893   1420.41199     682.5383     444.9893
   1420.39673     682.4182     445.3641   1420.39673     682.4182     445.3641
   1420.38147     682.9725     444.6158   1420.38147     682.9725     444.6158
   1420.36621     686.5714     445.3385   1420.36621     686.5714     445.3385
   1420.35095     689.2747     447.6032   1420.35095     689.2747     447.6032
   1420.33569     698.0202     451.9078   1420.33569     698.0202     451.9078
   1420.32043     711.2615     459.8478   1420.32043     711.2615     459.8478
   1420.30518     742.3012     477.5760   1420.30518     742.3012     477.5760
   1420.28992     804.4969     514.4077   1420.28992     804.4969     514.4077
   1420.27466     883.1381     562.9409   1420.27466     883.1381     562.9409
   1420.25940     942.8661     598.4277   1420.25940     942.8661     598.4277
   1420.24414    1076.7241     684.0149   1420.24414    1076.7241     684.0149
   1420.22888    1384.8055     875.0726   1420.22888    1384.8055     875.0726
   1420.21362    1650.3129    1038.5872   1420.21362    1650.3129    1038.5872
   1420.19836    1577.7349     987.9583   1420.19836    1577.7349     987.9583
   1420.18311    1412.5521     887.7108   1420.18311    1412.5521     887.7108
   1420.16785    1506.8356     945.1871   1420.16785    1506.8356     945.1871
   1420.15259    1907.5872    1192.2648   1420.15259    1907.5872    1192.2648
   1420.13733    1979.8544    1235.3083   1420.13733    1979.8544    1235.3083
   1420.12207    2156.3110    1343.1924   1420.12207    2156.3110    1343.1924
   1420.10681    2265.7761    1405.7834   1420.10681    2265.7761    1405.7834
   1420.09155    2163.5981    1341.8710   1420.09155    2163.5981    1341.8710
   1420.07629    1956.5182    1214.6069   1420.07629    1956.5182    1214.6069
   1420.06104    1594.2678     990.5977   1420.06104    1594.2678     990.5977
   1420.04578    1255.7349     783.1891   1420.04578    1255.7349     783.1891
   1420.03052    1073.8019     669.7778   1420.03052    1073.8019     669.7778
   1420.01526     977.2745     610.2524   1420.01526     977.2745     610.2524
   1420.00000     881.5380     552.4724   1420.00000     881.5380     552.4724
   1419.98474     785.8016     494.6926   1419.98474     785.8016     494.6926
   1419.96948     735.5079     462.1785   1419.96948     735.5079     462.1785
   1419.95422     708.7861     444.4780   1419.95422     708.7861     444.4780
   1419.93896     694.1631     435.3352   1419.93896     694.1631     435.3352
   1419.92371     686.3038     428.8084   1419.92371     686.3038     428.8084
   1419.90845     680.2638     425.8156   1419.90845     680.2638     425.8156
   1419.89319     676.6661     424.1818   1419.89319     676.6661     424.1818
   1419.87793     675.3035     421.6879   1419.87793     675.3035     421.6879
   1419.86267     674.9475     420.6709   1419.86267     674.9475     420.6709
   1419.84741     672.7265     419.0812   1419.84741     672.7265     419.0812
   1419.83215     671.4902     418.5715   1419.83215     671.4902     418.5715
   1419.81689     671.4586     417.8063   1419.81689     671.4586     417.8063
   1419.80164     670.6783     417.1347   1419.80164     670.6783     417.1347
   1419.78638     670.6804     417.0911   1419.78638     670.6804     417.0911
   1419.77112     670.7828     416.7760   1419.77112     670.7828     416.7760
   1419.75586     671.9475     415.3503   1419.75586     671.9475     415.3503
   1419.74060     671.1113     415.9076   1419.74060     671.1113     415.9076
   1419.72534     669.7810     414.8084   1419.72534     669.7810     414.8084
   1419.71008     671.0865     415.0913   1419.71008     671.0865     415.0913
   1419.69482     670.7691     414.6077   1419.69482     670.7691     414.6077
   1419.67957     670.6541     414.9585   1419.67957     670.6541     414.9585
   1419.66431     671.7207     414.1846   1419.66431     671.7207     414.1846
   1419.64905     670.7188     413.7563   1419.64905     670.7188     413.7563
   1419.63379     671.2437     413.7019   1419.63379     671.2437     413.7019
   1419.61853     671.3203     413.1316   1419.61853     671.3203     413.1316
   1419.60327     671.5789     412.7910   1419.60327     671.5789     412.7910
   1419.58801     671.7252     412.8503   1419.58801     671.7252     412.8503
   1419.57275     672.1021     412.6595   1419.57275     672.1021     412.6595
   1419.55750     672.2455     411.9435   1419.55750     672.2455     411.9435
   1419.54224     672.3714     412.1110   1419.54224     672.3714     412.1110
   1419.52698     671.8381     412.9662   1419.52698     671.8381     412.9662
   1419.51172     673.2964     411.7400   1419.51172     673.2964     411.7400
   1419.49646     672.7992     412.0375   1419.49646     672.7992     412.0375
   1419.48120     673.3383     411.4071   1419.48120     673.3383     411.4071
   1419.46594     672.5315     411.2632   1419.46594     672.5315     411.2632
   1419.45068     674.1257     411.9613   1419.45068     674.1257     411.9613
   1419.43542     673.3448     411.6379   1419.43542     673.3448     411.6379
   1419.42017     674.0794     411.4150   1419.42017     674.0794     411.4150
   1419.40491     674.8307     412.1113   1419.40491     674.8307     412.1113
   1419.38965     675.4891     411.7137   1419.38965     675.4891     411.7137
   1419.37439     675.5629     411.4354   1419.37439     675.5629     411.4354
   1419.35913     675.3614     411.4003   1419.35913     675.3614     411.4003
   1419.34387     675.4443     411.2507   1419.34387     675.4443     411.2507
   1419.32861     677.1227     411.7583   1419.32861     677.1227     411.7583
   1419.31335     676.4944     411.2338   1419.31335     676.4944     411.2338
   1419.29810     676.5425     412.0289   1419.29810     676.5425     412.0289
   1419.28284     676.4587     411.6660   1419.28284     676.4587     411.6660
   1419.26758     677.6216     412.7626   1419.26758     677.6216     412.7626
   1419.25232     679.2593     412.2691   1419.25232     679.2593     412.2691
   1419.23706     677.0564     412.0645   1419.23706     677.0564     412.0645
   1419.22180     678.7916     411.8939   1419.22180     678.7916     411.8939
   1419.20654     678.6188     412.4238   1419.20654     678.6188     412.4238
   1419.19128     679.9293     412.4676   1419.19128     679.9293     412.4676
   1419.17603     679.9122     412.3885   1419.17603     679.9122     412.3885
   1419.16077     680.7475     413.3990   1419.16077     680.7475     413.3990
   1419.14551     680.2759     412.7133   1419.14551     680.2759     412.7133
   1419.13025     681.1517     412.4749   1419.13025     681.1517     412.4749
   1419.11499     681.3734     413.4031   1419.11499     681.3734     413.4031
   1419.09973     682.4420     414.3194   1419.09973     682.4420     414.3194
   1419.08447     681.7591     413.9518   1419.08447     681.7591     413.9518
   1419.06921     683.9925     413.8769   1419.06921     683.9925     413.8769
   1419.05396     683.6500     414.0686   1419.05396     683.6500     414.0686
   1419.03870     683.7087     414.4010   1419.03870     683.7087     414.4010
   1419.02344     684.1334     414.6368   1419.02344     684.1334     414.6368
   1419.00818     685.0890     415.8920   1419.00818     685.0890     415.8920
   1418.99292     685.6986     415.0584   1418.99292     685.6986     415.0584
   1418.97766     686.1870     415.9077   1418.97766     686.1870     415.9077
   1418.96240     687.1228     416.5720   1418.96240     687.1228     416.5720
   1418.94714     686.2856     416.4019   1418.94714     686.2856     416.4019
   1418.93188     686.8871     417.2991   1418.93188     686.8871     417.2991
   1418.91663     687.0370     416.5653   1418.91663     687.0370     416.5653
   1418.90137     688.9600     417.5432   1418.90137     688.9600     417.5432
   1418.88611     689.4040     417.5768   1418.88611     689.4040     417.5768
   1418.87085     690.1294     418.8164   1418.87085     690.1294     418.8164
   1418.85559     690.6760     419.5237   1418.85559     690.6760     419.5237
   1418.84033     690.7933     419.2035   1418.84033     690.7933     419.2035
   1418.82507     691.5796     419.7176   1418.82507     691.5796     419.7176
   1418.80981     690.9562     419.6670   1418.80981     690.9562     419.6670
   1418.79456     693.2626     420.3517   1418.79456     693.2626     420.3517
   1418.77930     692.9828     420.3855   1418.77930     692.9828     420.3855
   1418.76404     693.5930     420.8994   1418.76404     693.5930     420.8994
   1418.74878     694.7634     421.5807   1418.74878     694.7634     421.5807
   1418.73352     695.3411     421.7682   1418.73352     695.3411     421.7682
   1418.71826     694.3823     421.8401   1418.71826     694.3823     421.8401
   1418.70300     696.9855     423.7961   1418.70300     696.9855     423.7961
   1418.68774     696.3334     423.4760   1418.68774     696.3334     423.4760
   1418.67249     696.7327     424.2603   1418.67249     696.7327     424.2603
   1418.65723     698.5129     425.4804   1418.65723     698.5129     425.4804
   1418.64197     700.1839     425.7600   1418.64197     700.1839     425.7600
   1418.62671     699.7665     425.9530   1418.62671     699.7665     425.9530
   1418.61145     700.2900     426.7571   1418.61145     700.2900     426.7571
   1418.59619     700.4885     427.1812   1418.59619     700.4885     427.1812
   1418.58093     702.1078     427.5428   1418.58093     702.1078     427.5428
   1418.56567     702.6422     428.2277   1418.56567     702.6422     428.2277
   1418.55042     702.6178     429.7818   1418.55042     702.6178     429.7818
   1418.53516     703.5309     430.1039   1418.53516     703.5309     430.1039
   1418.51990     703.4213     430.9664   1418.51990     703.4213     430.9664
   1418.50464     705.7802     431.7653   1418.50464     705.7802     431.7653
   1418.48938     706.9631     432.1330   1418.48938     706.9631     432.1330
   1418.47412     706.6892     432.0373   1418.47412     706.6892     432.0373
   1418.45886     708.7187     433.1440   1418.45886     708.7187     433.1440
   1418.44360     707.5949     434.3512   1418.44360     707.5949     434.3512
   1418.42834     708.3502     434.5251   1418.42834     708.3502     434.5251
   1418.41309     710.5338     434.9011   1418.41309     710.5338     434.9011
   1418.39783     711.5372     435.7798   1418.39783     711.5372     435.7798
   1418.38257     712.2052     437.3276   1418.38257     712.2052     437.3276
   1418.36731     711.8499     437.0823   1418.36731     711.8499     437.0823
   1418.35205     712.0613     438.3680   1418.35205     712.0613     438.3680
   1418.33679     713.3360     439.3321   1418.33679     713.3360     439.3321
   1418.32153     714.4137     440.4111   1418.32153     714.4137     440.4111
   1418.30627     716.0434     440.6862   1418.30627     716.0434     440.6862
   1418.29102     716.0551     441.9214   1418.29102     716.0551     441.9214
   1418.27576     716.1985     441.9104   1418.27576     716.1985     441.9104
   1418.26050     718.3726     442.3759   1418.26050     718.3726     442.3759
   1418.24524     719.2812     443.8856   1418.24524     719.2812     443.8856
   1418.22998     718.8526     444.1759   1418.22998     718.8526     444.1759
   1418.21472     720.4834     445.7776   1418.21472     720.4834     445.7776
   1418.19946     721.4505     446.1576   1418.19946     721.4505     446.1576
   1418.18420     721.7188     448.0055   1418.18420     721.7188     448.0055
   1418.16895     722.4102     449.0197   1418.16895     722.4102     449.0197
   1418.15369     724.1682     449.2430   1418.15369     724.1682     449.2430
   1418.13843     725.2499     450.6047   1418.13843     725.2499     450.6047
   1418.12317     724.8199     451.0366   1418.12317     724.8199     451.0366
   1418.10791     726.7351     451.2685   1418.10791     726.7351     451.2685
   1418.09265     727.0926     452.4633   1418.09265     727.0926     452.4633
   1418.07739     727.6005     454.2983   1418.07739     727.6005     454.2983
   1418.06213     729.4044     455.3817   1418.06213     729.4044     455.3817
   1418.04688     730.5386     455.4702   1418.04688     730.5386     455.4702
   1418.03162     730.2006     456.5581   1418.03162     730.2006     456.5581
   1418.01636     731.9281     457.7264   1418.01636     731.9281     457.7264
   1418.00110     733.0087     458.5074   1418.00110     733.0087     458.5074
   1417.98584     732.4902     459.1951   1417.98584     732.4902     459.1951
   1417.97058     734.1208     460.8762   1417.97058     734.1208     460.8762
   1417.95532     735.0870     461.2542   1417.95532     735.0870     461.2542
   1417.94006     736.9050     461.6905   1417.94006     736.9050     461.6905
   1417.92480     736.7509     464.5584   1417.92480     736.7509     464.5584
   1417.90955     738.1906     464.5626   1417.90955     738.1906     464.5626
   1417.89429     738.1113     466.0583   1417.89429     738.1113     466.0583
   1417.87903     740.4217     466.8263   1417.87903     740.4217     466.8263
   1417.86377     740.0602     468.3421   1417.86377     740.0602     468.3421
   1417.84851     741.1558     468.3835   1417.84851     741.1558     468.3835
   1417.83325     741.1974     469.2610   1417.83325     741.1974     469.2610
   1417.81799     742.6205     471.2504   1417.81799     742.6205     471.2504
   1417.80273     745.2042     472.3451   1417.80273     745.2042     472.3451
   1417.78748     745.9044     473.2467   1417.78748     745.9044     473.2467
   1417.77222     745.1999     473.6786   1417.77222     745.1999     473.6786
   1417.75696     746.7076     476.0059   1417.75696     746.7076     476.0059
   1417.74170     748.1564     476.8510   1417.74170     748.1564     476.8510
   1417.72644     750.2798     477.3433   1417.72644     750.2798     477.3433
   1417.71118     749.6747     477.9027   1417.71118     749.6747     477.9027
   1417.69592     750.4861     479.7542   1417.69592     750.4861     479.7542
   1417.68066     751.7880     480.8070   1417.68066     751.7880     480.8070
   1417.66541     753.7715     482.2010   1417.66541     753.7715     482.2010
   1417.65015     752.7223     482.7647   1417.65015     752.7223     482.7647
   1417.63489     754.9060     484.3221   1417.63489     754.9060     484.3221
   1417.61963     753.9229     484.8509   1417.61963     753.9229     484.8509
   1417.60437     755.8901     485.6608   1417.60437     755.8901     485.6608
   1417.58911     756.5344     487.4257   1417.58911     756.5344     487.4257
   1417.57385     757.3582     488.1236   1417.57385     757.3582     488.1236
   1417.55859     758.7837     489.5614   1417.55859     758.7837     489.5614
   1417.54333     760.5117     490.8804   1417.54333     760.5117     490.8804
   1417.52808     760.5448     491.4772   1417.52808     760.5448     491.4772
   1417.51282     761.2955     493.2732   1417.51282     761.2955     493.2732
   1417.49756     762.2403     494.3418   1417.49756     762.2403     494.3418
   1417.48230     763.8331     495.2728   1417.48230     763.8331     495.2728
   1417.46704     764.8623     496.4351   1417.46704     764.8623     496.4351
   1417.45178     764.5419     497.0894   1417.45178     764.5419     497.0894
   1417.43652     766.0670     499.1151   1417.43652     766.0670     499.1151
   1417.42126     767.2733     499.0059   1417.42126     767.2733     499.0059
   1417.40601     767.7159     500.3525   1417.40601     767.7159     500.3525
   1417.39075     768.6519     501.9261   1417.39075     768.6519     501.9261
   1417.37549     768.5614     502.9789   1417.37549     768.5614     502.9789
   1417.36023     769.8751     503.8722   1417.36023     769.8751     503.8722
   1417.34497     770.0103     504.6924   1417.34497     770.0103     504.6924
   1417.32971     771.8278     506.0998   1417.32971     771.8278     506.0998
   1417.31445     772.7152     507.4929   1417.31445     772.7152     507.4929
   1417.29919     773.5872     509.1511   1417.29919     773.5872     509.1511
   1417.28394     775.2274     510.1164   1417.28394     775.2274     510.1164
   1417.26868     775.3914     510.8689   1417.26868     775.3914     510.8689
   1417.25342     776.0737     511.5010   1417.25342     776.0737     511.5010
   1417.23816     774.5930     513.4509   1417.23816     774.5930     513.4509
   1417.22290     778.0516     514.7543   1417.22290     778.0516     514.7543
   1417.20764     778.2004     515.0390   1417.20764     778.2004     515.0390
   1417.19238     778.1216     516.0248   1417.19238     778.1216     516.0248
   1417.17712     778.3497     516.2682   1417.17712     778.3497     516.2682
   1417.16187     780.2747     517.6024   1417.16187     780.2747     517.6024
   1417.14661     781.4107     518.8552   1417.14661     781.4107     518.8552
   1417.13135     782.1575     518.9220   1417.13135     782.1575     518.9220
   1417.11609     781.6791     520.6735   1417.11609     781.6791     520.6735
   1417.10083     782.8784     521.6556   1417.10083     782.8784     521.6556
   1417.08557     783.3503     523.6494   1417.08557     783.3503     523.6494
   1417.07031     783.8423     523.7617   1417.07031     783.8423     523.7617
   1417.05505     784.4385     524.1338   1417.05505     784.4385     524.1338
   1417.03979     786.0146     525.4967   1417.03979     786.0146     525.4967
   1417.02454     784.8538     526.4160   1417.02454     784.8538     526.4160
   1417.00928     786.1555     526.9911   1417.00928     786.1555     526.9911
   1416.99402     787.4543     527.8950   1416.99402     787.4543     527.8950
   1416.97876     787.6835     529.8693   1416.97876     787.6835     529.8693
   1416.96350     789.8813     529.1099   1416.96350     789.8813     529.1099
   1416.94824     788.4488     531.5660   1416.94824     788.4488     531.5660
   1416.93298     788.9753     531.6603   1416.93298     788.9753     531.6603
   1416.91772     791.0272     532.4225   1416.91772     791.0272     532.4225
   1416.90247     789.0668     533.9609   1416.90247     789.0668     533.9609
   1416.88721     791.4089     533.8070   1416.88721     791.4089     533.8070
   1416.87195     792.8509     534.9252   1416.87195     792.8509     534.9252
   1416.85669     791.0275     534.6859   1416.85669     791.0275     534.6859
   1416.84143     790.7136     535.8803   1416.84143     790.7136     535.8803
   1416.82617     792.5610     536.0202   1416.82617     792.5610     536.0202
   1416.81091     792.5690     537.1053   1416.81091     792.5690     537.1053
   1416.79565     793.2740     538.4889   1416.79565     793.2740     538.4889
   1416.78040     792.4918     538.2885   1416.78040     792.4918     538.2885
   1416.76514     794.3981     539.1824   1416.76514     794.3981     539.1824
   1416.74988     794.0658     538.5854   1416.74988     794.0658     538.5854
   1416.73462     793.9960     539.3400   1416.73462     793.9960     539.3400
   1416.71936     793.7373     540.1716   1416.71936     793.7373     540.1716
   1416.70410     794.9562     541.1534   1416.70410     794.9562     541.1534
   1416.68884     794.5814     540.9086   1416.68884     794.5814     540.9086
   1416.67358     794.7054     542.1867   1416.67358     794.7054     542.1867
   1416.65833     795.8242     541.9830   1416.65833     795.8242     541.9830
   1416.64307     796.0159     541.5878   1416.64307     796.0159     541.5878
   1416.62781     795.6028     542.6514   1416.62781     795.6028     542.6514
   1416.61255     795.9406     543.1166   1416.61255     795.9406     543.1166
   1416.59729     796.1819     544.0868   1416.59729     796.1819     544.0868
   1416.58203     795.8441     543.4987   1416.58203     795.8441     543.4987
   1416.56677     796.2811     545.1243   1416.56677     796.2811     545.1243
   1416.55151     795.5363     543.8615   1416.55151     795.5363     543.8615
   1416.53625     796.3487     544.9422   1416.53625     796.3487     544.9422
   1416.52100     795.7739     545.1614   1416.52100     795.7739     545.1614
   1416.50574     795.8196     544.6941   1416.50574     795.8196     544.6941
   1416.49048     796.8702     544.9998   1416.49048     796.8702     544.9998
   1416.47522     796.4841     545.0476   1416.47522     796.4841     545.0476
   1416.45996     796.8853     544.4637   1416.45996     796.8853     544.4637
   1416.44470     796.3331     545.4875   1416.44470     796.3331     545.4875
   1416.42944     797.0489     545.2869   1416.42944     797.0489     545.2869
   1416.41418     795.7562     545.1409   1416.41418     795.7562     545.1409
   1416.39893     795.9153     545.2303   1416.39893     795.9153     545.2303
   1416.38367     796.5325     545.3604   1416.38367     796.5325     545.3604
   1416.36841     794.5407     545.2271   1416.36841     794.5407     545.2271
   1416.35315     794.9199     545.0448   1416.35315     794.9199     545.0448
   1416.33789     796.1168     546.0063   1416.33789     796.1168     546.0063
   1416.32263     794.5085     544.7822   1416.32263     794.5085     544.7822
   1416.30737     795.3611     545.5603   1416.30737     795.3611     545.5603
   1416.29211     794.5621     544.4469   1416.29211     794.5621     544.4469
   1416.27686     794.9174     544.6666   1416.27686     794.9174     544.6666
   1416.26160     794.8314     544.4633   1416.26160     794.8314     544.4633
   1416.24634     793.2205     544.7735   1416.24634     793.2205     544.7735
   1416.23108     795.3849     543.9902   1416.23108     795.3849     543.9902
   1416.21582     792.9095     544.0997   1416.21582     792.9095     544.0997
   1416.20056     792.9510     543.1376   1416.20056     792.9510     543.1376
   1416.18530     792.7105     542.9281   1416.18530     792.7105     542.9281
   1416.17004     792.1075     542.3719   1416.17004     792.1075     542.3719
   1416.15479     792.2932     542.8326   1416.15479     792.2932     542.8326
   1416.13953     792.0290     541.8035   1416.13953     792.0290     541.8035
   1416.12427     791.3166     542.1038   1416.12427     791.3166     542.1038
   1416.10901     791.6889     541.1886   1416.10901     791.6889     541.1886
   1416.09375     790.5569     541.0508   1416.09375     790.5569     541.0508
   1416.07849     790.4769     540.0110   1416.07849     790.4769     540.0110
   1416.06323     789.2169     540.1902   1416.06323     789.2169     540.1902
   1416.04797     789.7153     540.0090   1416.04797     789.7153     540.0090
   1416.03271     788.0775     539.3423   1416.03271     788.0775     539.3423
   1416.01746     788.8395     538.9116   1416.01746     788.8395     538.9116
   1416.00220     787.5956     537.9520   1416.00220     787.5956     537.9520
   1415.98694     788.1447     537.7932   1415.98694     788.1447     537.7932
   1415.97168     787.2905     537.8805   1415.97168     787.2905     537.8805
   1415.95642     785.4370     537.5408   1415.95642     785.4370     537.5408
   1415.94116     786.9046     537.0292   1415.94116     786.9046     537.0292
   1415.92590     785.0857     535.3024   1415.92590     785.0857     535.3024
   1415.91064     785.0818     534.8130   1415.91064     785.0818     534.8130
   1415.89539     784.3771     534.2350   1415.89539     784.3771     534.2350
   1415.88013     783.3405     533.9140   1415.88013     783.3405     533.9140
   1415.86487     783.0823     533.5885   1415.86487     783.0823     533.5885
   1415.84961     782.0242     532.7997   1415.84961     782.0242     532.7997
   1415.83435     781.2958     532.4196   1415.83435     781.2958     532.4196
   1415.81909     780.4107     532.2074   1415.81909     780.4107     532.2074
   1415.80383     779.9346     531.2983   1415.80383     779.9346     531.2983
   1415.78857     778.6068     530.6592   1415.78857     778.6068     530.6592
   1415.77332     778.2819     529.8794   1415.77332     778.2819     529.8794
   1415.75806     779.0479     529.0272   1415.75806     779.0479     529.0272
   1415.74280     778.5633     528.6810   1415.74280     778.5633     528.6810
   1415.72754     777.9595     528.5759   1415.72754     777.9595     528.5759
   1415.71228     776.4130     526.8291   1415.71228     776.4130     526.8291
   1415.69702     776.1898     526.8811   1415.69702     776.1898     526.8811
   1415.68176     774.4379     526.7756   1415.68176     774.4379     526.7756
   1415.66650     774.6592     525.2583   1415.66650     774.6592     525.2583
   1415.65125     773.0740     524.5663   1415.65125     773.0740     524.5663
   1415.63599     773.0893     523.2686   1415.63599     773.0893     523.2686
   1415.62073     770.2899     522.6547   1415.62073     770.2899     522.6547
   1415.60547     770.4794     522.4382   1415.60547     770.4794     522.4382
   1415.59021     770.1801     521.8049   1415.59021     770.1801     521.8049
   1415.57495     770.3172     520.3968   1415.57495     770.3172     520.3968
   1415.55969     769.4157     520.1032   1415.55969     769.4157     520.1032
   1415.54443     767.5217     519.7700   1415.54443     767.5217     519.7700
   1415.52917     767.1451     518.5842   1415.52917     767.1451     518.5842
   1415.51392     765.2710     518.6200   1415.51392     765.2710     518.6200
   1415.49866     765.0878     516.7291   1415.49866     765.0878     516.7291
   1415.48340     763.8340     515.7891   1415.48340     763.8340     515.7891
   1415.46814     763.6669     514.9388   1415.46814     763.6669     514.9388
   1415.45288     761.6116     514.9164   1415.45288     761.6116     514.9164
   1415.43762     761.7747     513.5859   1415.43762     761.7747     513.5859
   1415.42236     759.7836     512.8898   1415.42236     759.7836     512.8898
   1415.40710     759.3990     512.6060   1415.40710     759.3990     512.6060
   1415.39185     758.2231     510.6870   1415.39185     758.2231     510.6870
   1415.37659     756.9969     510.8038   1415.37659     756.9969     510.8038
   1415.36133     755.5960     510.0653   1415.36133     755.5960     510.0653
   1415.34607     754.4389     508.6792   1415.34607     754.4389     508.6792
   1415.33081     754.8206     507.2732   1415.33081     754.8206     507.2732
   1415.31555     752.7247     507.0477   1415.31555     752.7247     507.0477
   1415.30029     751.9093     505.5363   1415.30029     751.9093     505.5363
   1415.28503     750.6281     504.5136   1415.28503     750.6281     504.5136
   1415.26978     750.2077     504.5123   1415.26978     750.2077     504.5123
   1415.25452     748.7452     503.1479   1415.25452     748.7452     503.1479
   1415.23926     748.0886     502.5788   1415.23926     748.0886     502.5788
   1415.22400     745.4000     501.9383   1415.22400     745.4000     501.9383
   1415.20874     744.0594     499.3785   1415.20874     744.0594     499.3785
   1415.19348     743.2191     499.5643   1415.19348     743.2191     499.5643
   1415.17822     741.7789     499.5525   1415.17822     741.7789     499.5525
   1415.16296     741.0050     497.7630   1415.16296     741.0050     497.7630
   1415.14771     739.7370     496.1601   1415.14771     739.7370     496.1601
   1415.13245     736.6796     495.7026   1415.13245     736.6796     495.7026
   1415.11719     736.9965     494.4558   1415.11719     736.9965     494.4558
   1415.10193     735.2487     492.9128   1415.10193     735.2487     492.9128
   1415.08667     733.5135     491.7967   1415.08667     733.5135     491.7967
   1415.07141     732.6257     491.6244   1415.07141     732.6257     491.6244
   1415.05615     732.0956     490.8117   1415.05615     732.0956     490.8117
   1415.04089     729.3090     488.9053   1415.04089     729.3090     488.9053
   1415.02563     728.1951     487.9962   1415.02563     728.1951     487.9962
   1415.01038     727.4841     486.8482   1415.01038     727.4841     486.8482
   1414.99512     725.9404     485.6021   1414.99512     725.9404     485.6021
   1414.97986     723.5303     484.1800   1414.97986     723.5303     484.1800
   1414.96460     721.7574     483.5028   1414.96460     721.7574     483.5028
   1414.94934     720.6118     481.5067   1414.94934     720.6118     481.5067
   1414.93408     719.0773     480.8343   1414.93408     719.0773     480.8343
   1414.91882     718.0095     479.9531   1414.91882     718.0095     479.9531
   1414.90356     716.6858     478.3296   1414.90356     716.6858     478.3296
   1414.88831     713.6823     477.4838   1414.88831     713.6823     477.4838
   1414.87305     712.9786     476.3756   1414.87305     712.9786     476.3756
   1414.85779     711.4335     474.5805   1414.85779     711.4335     474.5805
   1414.84253     709.4140     472.5872   1414.84253     709.4140     472.5872
   1414.82727     708.5240     473.2888   1414.82727     708.5240     473.2888
   1414.81201     705.7669     471.0649   1414.81201     705.7669     471.0649
   1414.79675     704.2640     470.9755   1414.79675     704.2640     470.9755
   1414.78149     703.0557     469.0082   1414.78149     703.0557     469.0082
   1414.76624     700.9568     467.5776   1414.76624     700.9568     467.5776
   1414.75098     699.5525     466.6917   1414.75098     699.5525     466.6917
   1414.73572     697.8474     464.3369   1414.73572     697.8474     464.3369
   1414.72046     695.2667     463.6779   1414.72046     695.2667     463.6779
   1414.70520     692.6365     461.7527   1414.70520     692.6365     461.7527
   1414.68994     691.4423     461.4963   1414.68994     691.4423     461.4963
   1414.67468     690.1971     460.3304   1414.67468     690.1971     460.3304
   1414.65942     687.8417     459.0039   1414.65942     687.8417     459.0039
   1414.64417     686.2088     457.0081   1414.64417     686.2088     457.0081
   1414.62891     684.4597     456.1373   1414.62891     684.4597     456.1373
   1414.61365     681.8432     454.4352   1414.61365     681.8432     454.4352
   1414.59839     681.1259     452.8956   1414.59839     681.1259     452.8956
   1414.58313     677.6823     451.1232   1414.58313     677.6823     451.1232
   1414.56787     675.2108     449.6093   1414.56787     675.2108     449.6093
   1414.55261     674.1745     447.3949   1414.55261     674.1745     447.3949
   1414.53735     670.8151     446.9405   1414.53735     670.8151     446.9405
   1414.52209     669.8875     446.0128   1414.52209     669.8875     446.0128
   1414.50684     667.8359     444.0274   1414.50684     667.8359     444.0274
   1414.49158     664.3337     442.6932   1414.49158     664.3337     442.6932
   1414.47632     662.6003     441.3336   1414.47632     662.6003     441.3336
   1414.46106     659.7308     440.2423   1414.46106     659.7308     440.2423
   1414.44580     658.3342     438.3203   1414.44580     658.3342     438.3203
   1414.43054     657.0952     436.7218   1414.43054     657.0952     436.7218
   1414.41528     653.8183     435.4120   1414.41528     653.8183     435.4120
   1414.40002     650.9386     434.0439   1414.40002     650.9386     434.0439
   1414.38477     649.1274     431.7701   1414.38477     649.1274     431.7701
   1414.36951     647.7115     430.8256   1414.36951     647.7115     430.8256
   1414.35425     644.4421     428.4795   1414.35425     644.4421     428.4795
   1414.33899     641.7527     427.0952   1414.33899     641.7527     427.0952
   1414.32373     640.0864     425.4554   1414.32373     640.0864     425.4554
   1414.30847     636.7114     424.4100   1414.30847     636.7114     424.4100
   1414.29321     634.6502     422.0961   1414.29321     634.6502     422.0961
   1414.27795     632.6070     420.4587   1414.27795     632.6070     420.4587
   1414.26270     629.7586     419.4679   1414.26270     629.7586     419.4679
   1414.24744     627.9041     418.2486   1414.24744     627.9041     418.2486
   1414.23218     625.7472     415.8563   1414.23218     625.7472     415.8563
   1414.21692     622.5238     414.0092   1414.21692     622.5238     414.0092
   1414.20166     619.4401     412.3761   1414.20166     619.4401     412.3761
   1414.18640     617.6848     410.7512   1414.18640     617.6848     410.7512
   1414.17114     614.5253     409.6165   1414.17114     614.5253     409.6165
   1414.15588     613.1689     408.0272   1414.15588     613.1689     408.0272
   1414.14062     609.3356     405.8362   1414.14062     609.3356     405.8362
   1414.12537     606.8954     404.2455   1414.12537     606.8954     404.2455
   1414.11011     604.6187     402.6990   1414.11011     604.6187     402.6990
   1414.09485     601.5206     400.6269   1414.09485     601.5206     400.6269
   1414.07959     599.0431     399.0969   1414.07959     599.0431     399.0969
   1414.06433     596.1539     397.8089   1414.06433     596.1539     397.8089
   1414.04907     593.3155     396.0991   1414.04907     593.3155     396.0991
   1414.03381     591.1259     394.1119   1414.03381     591.1259     394.1119
   1414.01855     587.3342     392.5293   1414.01855     587.3342     392.5293
   1414.00330     601.3962     395.8533   1414.00330     601.3962     395.8533
   1413.98804     584.4910     389.6046   1413.98804     584.4910     389.6046
   1413.97278     580.2668     387.7255   1413.97278     580.2668     387.7255
   1413.95752     578.4565     386.0020   1413.95752     578.4565     386.0020
   1413.94226     574.2178     384.2191   1413.94226     574.2178     384.2191
   1413.92700     572.4069     382.0927   1413.92700     572.4069     382.0927
   1413.91174     569.1890     381.0805   1413.91174     569.1890     381.0805
   1413.89648     565.7778     378.6685   1413.89648     565.7778     378.6685
   1413.88123     563.2565     376.7609   1413.88123     563.2565     376.7609
   1413.86597     561.0994     375.3481   1413.86597     561.0994     375.3481
   1413.85071     557.4718     373.3750   1413.85071     557.4718     373.3750
   1413.83545     555.1020     371.4966   1413.83545     555.1020     371.4966
   1413.82019     551.8568     369.9886   1413.82019     551.8568     369.9886
   1413.80493     549.4137     368.5423   1413.80493     549.4137     368.5423
   1413.78967     545.8479     366.1116   1413.78967     545.8479     366.1116
   1413.77441     543.6349     364.8965   1413.77441     543.6349     364.8965
   1413.75916     541.4051     363.2098   1413.75916     541.4051     363.2098
   1413.74390     538.2589     361.4812   1413.74390     538.2589     361.4812
   1413.72864     535.4675     360.0609   1413.72864     535.4675     360.0609
   1413.71338     532.4557     357.9837   1413.71338     532.4557     357.9837
   1413.69812     530.4409     355.7168   1413.69812     530.4409     355.7168
   1413.68286     527.6389     354.2024   1413.68286     527.6389     354.2024
   1413.66760     523.7676     352.6128   1413.66760     523.7676     352.6128
   1413.65234     520.1068     350.9667   1413.65234     520.1068     350.9667
   1413.63708     517.7888     349.0315   1413.63708     517.7888     349.0315
   1413.62183     515.4389     347.8110   1413.62183     515.4389     347.8110
   1413.60657     512.7579     345.5796   1413.60657     512.7579     345.5796
   1413.59131     509.7671     343.9417   1413.59131     509.7671     343.9417
   1413.57605     507.7659     342.1406   1413.57605     507.7659     342.1406
   1413.56079     503.7890     340.7388   1413.56079     503.7890     340.7388
   1413.54553     501.7914     338.9777   1413.54553     501.7914     338.9777
   1413.53027     498.7931     337.1895   1413.53027     498.7931     337.1895
   1413.51501     495.8393     335.5692   1413.51501     495.8393     335.5692
   1413.49976     493.1238     334.3336   1413.49976     493.1238     334.3336
   1413.48450     490.7278     332.1302   1413.48450     490.7278     332.1302
   1413.46924     487.3936     330.7626   1413.46924     487.3936     330.7626
   1413.45398     485.1622     328.8029   1413.45398     485.1622     328.8029
   1413.43872     482.3271     327.3900   1413.43872     482.3271     327.3900
   1413.42346     479.7176     326.2743   1413.42346     479.7176     326.2743
   1413.40820     477.2411     324.4243   1413.40820     477.2411     324.4243
   1413.39294     474.4208     322.0667   1413.39294     474.4208     322.0667
   1413.37769     471.5843     320.9326   1413.37769     471.5843     320.9326
   1413.36243     468.2308     319.2790   1413.36243     468.2308     319.2790
   1413.34717     466.4611     317.5302   1413.34717     466.4611     317.5302
   1413.33191     463.5767     316.2284   1413.33191     463.5767     316.2284
   1413.31665     461.1763     315.1501   1413.31665     461.1763     315.1501
   1413.30139     458.5688     313.2140   1413.30139     458.5688     313.2140
   1413.28613     455.6299     311.5087   1413.28613     455.6299     311.5087
   1413.27087     453.0378     310.2990   1413.27087     453.0378     310.2990
   1413.25562     450.2041     308.5678   1413.25562     450.2041     308.5678
   1413.24036     448.2709     307.1656   1413.24036     448.2709     307.1656
   1413.22510     445.9075     306.0983   1413.22510     445.9075     306.0983
   1413.20984     443.9765     304.3755   1413.20984     443.9765     304.3755
   1413.19458     441.0915     302.9477   1413.19458     441.0915     302.9477
   1413.17932     438.4422     301.5384   1413.17932     438.4422     301.5384
   1413.16406     435.9595     300.0272   1413.16406     435.9595     300.0272
   1413.14880     434.3830     298.8392   1413.14880     434.3830     298.8392
   1413.13354     431.9217     297.6577   1413.13354     431.9217     297.6577
   1413.11829     429.8332     296.6473   1413.11829     429.8332     296.6473
   1413.10303     427.4113     294.9475   1413.10303     427.4113     294.9475
   1413.08777     424.7080     293.6102   1413.08777     424.7080     293.6102
   1413.07251     422.5921     292.1851   1413.07251     422.5921     292.1851
   1413.05725     420.7316     290.9139   1413.05725     420.7316     290.9139
   1413.04199     417.6271     289.8529   1413.04199     417.6271     289.8529
   1413.02673     416.5335     288.5087   1413.02673     416.5335     288.5087
   1413.01147     413.4619     287.2449   1413.01147     413.4619     287.2449
   1412.99622     411.8304     286.6887   1412.99622     411.8304     286.6887
   1412.98096     410.2129     285.4610   1412.98096     410.2129     285.4610
   1412.96570     407.7720     284.3438   1412.96570     407.7720     284.3438
   1412.95044     406.5676     283.0560   1412.95044     406.5676     283.0560
   1412.93518     404.3337     281.6128   1412.93518     404.3337     281.6128
   1412.91992     402.3566     281.1523   1412.91992     402.3566     281.1523
   1412.90466     400.3426     280.3597   1412.90466     400.3426     280.3597
   1412.88940     398.3469     279.1049   1412.88940     398.3469     279.1049
   1412.87415     397.7793     277.7957   1412.87415     397.7793     277.7957
   1412.85889     395.1340     277.2374   1412.85889     395.1340     277.2374
   1412.84363     393.1121     276.1584   1412.84363     393.1121     276.1584
   1412.82837     391.8819     275.4825   1412.82837     391.8819     275.4825
   1412.81311     390.6455     274.8319   1412.81311     390.6455     274.8319
   1412.79785     388.9197     273.8250   1412.79785     388.9197     273.8250
   1412.78259     387.6546     272.9400   1412.78259     387.6546     272.9400
   1412.76733     385.7083     272.0536   1412.76733     385.7083     272.0536
   1412.75208     384.9470     271.5456   1412.75208     384.9470     271.5456
   1412.73682     383.0723     271.2965   1412.73682     383.0723     271.2965
   1412.72156     381.9904     270.3170   1412.72156     381.9904     270.3170
   1412.70630     380.9128     270.0768   1412.70630     380.9128     270.0768
   1412.69104     379.6221     269.2354   1412.69104     379.6221     269.2354
   1412.67578     378.1782     268.6810   1412.67578     378.1782     268.6810
   1412.66052     376.8781     267.9140   1412.66052     376.8781     267.9140
   1412.64526     376.4723     267.7578   1412.64526     376.4723     267.7578
   1412.63000     374.7718     267.4420   1412.63000     374.7718     267.4420
   1412.61475     374.1547     266.8653   1412.61475     374.1547     266.8653
   1412.59949     373.3854     267.0427   1412.59949     373.3854     267.0427
   1412.58423     372.7437     266.2923   1412.58423     372.7437     266.2923
   1412.56897     371.5054     265.8235   1412.56897     371.5054     265.8235
   1412.55371     370.7022     264.9019   1412.55371     370.7022     264.9019
   1412.53845     370.7500     265.7453   1412.53845     370.7500     265.7453
   1412.52319     370.0207     265.3835   1412.52319     370.0207     265.3835
   1412.50793     369.0135     264.8655   1412.50793     369.0135     264.8655
   1412.49268     368.5982     264.9196   1412.49268     368.5982     264.9196
   1412.47742     368.1151     265.1628   1412.47742     368.1151     265.1628
   1412.46216     367.6542     264.4912   1412.46216     367.6542     264.4912
   1412.44690     367.0606     265.0011   1412.44690     367.0606     265.0011
   1412.43164     367.4645     265.0377   1412.43164     367.4645     265.0377
   1412.41638     366.8448     264.6768   1412.41638     366.8448     264.6768
   1412.40112     365.7724     264.7687   1412.40112     365.7724     264.7687
   1412.38586     366.1219     265.4058   1412.38586     366.1219     265.4058
   1412.37061     366.2628     265.1111   1412.37061     366.2628     265.1111
   1412.35535     366.0720     265.7272   1412.35535     366.0720     265.7272
   1412.34009     366.6236     265.5795   1412.34009     366.6236     265.5795
   1412.32483     365.8299     265.7156   1412.32483     365.8299     265.7156
   1412.30957     365.9966     266.6888   1412.30957     365.9966     266.6888
   1412.29431     366.8526     267.1418   1412.29431     366.8526     267.1418
   1412.27905     367.0375     267.9464   1412.27905     367.0375     267.9464
   1412.26379     366.8607     267.8642   1412.26379     366.8607     267.8642
   1412.24854     366.9277     268.2718   1412.24854     366.9277     268.2718
   1412.23328     367.6914     268.9867   1412.23328     367.6914     268.9867
   1412.21802     368.0483     268.9964   1412.21802     368.0483     268.9964
   1412.20276     368.3400     269.6432   1412.20276     368.3400     269.6432