#     FILENAME=!Skynet_57528_lach-cc-208_20615_21051.cyb.fits
#     BASENAME=Skynet_57528_lach-cc-208_20615_21051
#     SRC_NAME=lach-cc-208
#     OBSERVER=ccmadison16_9505
#     DATE_OBS=2016-05-20T20:18:50.250
#        OBSID=20615
#      SCANNUM=21051
#          MJD=57528.8475
#          UTC=73220
#     SCANTYPE=track
#     DATAMODE=HIRES
#     TUNEFREQ=1420.0000
# Actual_FREQ1=1420.0000
# Actual_FREQ2=1420.0000
#    LO1Tuning=6870.000
#     RFFILTER=1355_1435
#        OBSBW=-15.6250
#        NCHAN=1024 
#        FOCUS=37.0709
#           RA=06:42:26.71
#          DEC=04:23:17.23
#      RA(hrs)=6.707400
#     DEC(deg)=4.388100
#    AZIM(deg)=184.738
#    ELEV(deg)=55.693
#     IFattens=10.00, 9.00
#      WARNING=None
#    TCAL_XL1=7.9635
#    TCAL_YR1=9.1340
#    TCAL_XL2=7.9635
#    TCAL_YR2=9.1340
#     TRX_XL1=11.7060
#     TRX_YR1=11.7060
#     TRX_XL2=11.7060
#     TRX_YR2=11.7060
#        TAVE=1.0000
#Freq1(MHz)          XL1          YR1  Freq2(MHz)          XL2          YR2 

   1427.81250     358.4948     264.2995   1427.81250     358.4948     264.2995
   1427.79724     359.7166     265.1243   1427.79724     359.7166     265.1243
   1427.78198     359.3575     266.1854   1427.78198     359.3575     266.1854
   1427.76672     360.2524     266.2475   1427.76672     360.2524     266.2475
   1427.75146     361.6135     267.5278   1427.75146     361.6135     267.5278
   1427.73621     361.8659     268.0195   1427.73621     361.8659     268.0195
   1427.72095     362.8203     269.6165   1427.72095     362.8203     269.6165
   1427.70569     363.4828     269.9445   1427.70569     363.4828     269.9445
   1427.69043     364.5957     271.1517   1427.69043     364.5957     271.1517
   1427.67517     365.8337     271.6754   1427.67517     365.8337     271.6754
   1427.65991     367.1371     273.1026   1427.65991     367.1371     273.1026
   1427.64465     367.7393     274.1169   1427.64465     367.7393     274.1169
   1427.62939     368.2780     275.3016   1427.62939     368.2780     275.3016
   1427.61414     370.4563     276.6696   1427.61414     370.4563     276.6696
   1427.59888     371.1419     277.4745   1427.59888     371.1419     277.4745
   1427.58362     372.3094     278.6442   1427.58362     372.3094     278.6442
   1427.56836     373.9083     279.8094   1427.56836     373.9083     279.8094
   1427.55310     375.4236     281.1971   1427.55310     375.4236     281.1971
   1427.53784     377.4498     282.5258   1427.53784     377.4498     282.5258
   1427.52258     378.8175     283.8716   1427.52258     378.8175     283.8716
   1427.50732     380.0113     285.2878   1427.50732     380.0113     285.2878
   1427.49207     381.4804     286.4575   1427.49207     381.4804     286.4575
   1427.47681     382.8182     287.6064   1427.47681     382.8182     287.6064
   1427.46155     385.7955     290.6429   1427.46155     385.7955     290.6429
   1427.44629     386.5225     291.3558   1427.44629     386.5225     291.3558
   1427.43103     388.4919     292.7235   1427.43103     388.4919     292.7235
   1427.41577     389.9745     294.4606   1427.41577     389.9745     294.4606
   1427.40051     391.9782     295.6839   1427.40051     391.9782     295.6839
   1427.38525     393.9966     297.1341   1427.38525     393.9966     297.1341
   1427.37000     396.1095     299.2218   1427.37000     396.1095     299.2218
   1427.35474     397.8465     300.8578   1427.35474     397.8465     300.8578
   1427.33948     399.9042     302.9385   1427.33948     399.9042     302.9385
   1427.32422     401.5266     304.6277   1427.32422     401.5266     304.6277
   1427.30896     403.6627     306.1708   1427.30896     403.6627     306.1708
   1427.29370     405.8156     307.9822   1427.29370     405.8156     307.9822
   1427.27844     408.1572     309.9916   1427.27844     408.1572     309.9916
   1427.26318     410.4962     312.1966   1427.26318     410.4962     312.1966
   1427.24792     412.7717     313.5011   1427.24792     412.7717     313.5011
   1427.23267     414.7065     315.9872   1427.23267     414.7065     315.9872
   1427.21741     417.1195     317.9718   1427.21741     417.1195     317.9718
   1427.20215     418.8860     319.7349   1427.20215     418.8860     319.7349
   1427.18689     422.2570     322.0938   1427.18689     422.2570     322.0938
   1427.17163     424.2733     324.2479   1427.17163     424.2733     324.2479
   1427.15637     427.1799     326.1624   1427.15637     427.1799     326.1624
   1427.14111     428.9025     328.6227   1427.14111     428.9025     328.6227
   1427.12585     431.1060     330.0152   1427.12585     431.1060     330.0152
   1427.11060     433.7437     332.5705   1427.11060     433.7437     332.5705
   1427.09534     436.7092     335.0273   1427.09534     436.7092     335.0273
   1427.08008     439.2192     336.7488   1427.08008     439.2192     336.7488
   1427.06482     442.0177     339.1317   1427.06482     442.0177     339.1317
   1427.04956     444.2983     341.9493   1427.04956     444.2983     341.9493
   1427.03430     447.2686     343.5249   1427.03430     447.2686     343.5249
   1427.01904     449.6779     345.8149   1427.01904     449.6779     345.8149
   1427.00378     452.5274     348.4071   1427.00378     452.5274     348.4071
   1426.98853     454.8515     350.8743   1426.98853     454.8515     350.8743
   1426.97327     458.3554     352.8688   1426.97327     458.3554     352.8688
   1426.95801     461.2832     355.4882   1426.95801     461.2832     355.4882
   1426.94275     463.2406     357.6410   1426.94275     463.2406     357.6410
   1426.92749     465.1302     360.5510   1426.92749     465.1302     360.5510
   1426.91223     469.0542     361.9966   1426.91223     469.0542     361.9966
   1426.89697     471.2045     364.8405   1426.89697     471.2045     364.8405
   1426.88171     474.0906     366.7103   1426.88171     474.0906     366.7103
   1426.86646     477.5364     369.3284   1426.86646     477.5364     369.3284
   1426.85120     479.5881     372.2386   1426.85120     479.5881     372.2386
   1426.83594     483.0476     374.8003   1426.83594     483.0476     374.8003
   1426.82068     485.1631     377.1103   1426.82068     485.1631     377.1103
   1426.80542     488.4370     379.3259   1426.80542     488.4370     379.3259
   1426.79016     491.5195     381.8065   1426.79016     491.5195     381.8065
   1426.77490     494.2323     383.8951   1426.77490     494.2323     383.8951
   1426.75964     497.3988     386.0298   1426.75964     497.3988     386.0298
   1426.74438     500.4927     389.4306   1426.74438     500.4927     389.4306
   1426.72913     503.2808     391.9298   1426.72913     503.2808     391.9298
   1426.71387     505.7084     394.1819   1426.71387     505.7084     394.1819
   1426.69861     508.6585     397.1948   1426.69861     508.6585     397.1948
   1426.68335     511.4527     399.6955   1426.68335     511.4527     399.6955
   1426.66809     514.6171     402.2633   1426.66809     514.6171     402.2633
   1426.65283     517.8702     404.1653   1426.65283     517.8702     404.1653
   1426.63757     520.6250     406.9534   1426.63757     520.6250     406.9534
   1426.62231     523.9803     412.4507   1426.62231     523.9803     412.4507
   1426.60706     525.7702     412.1073   1426.60706     525.7702     412.1073
   1426.59180     528.8802     414.4558   1426.59180     528.8802     414.4558
   1426.57654     532.7519     417.2376   1426.57654     532.7519     417.2376
   1426.56128     535.6950     419.6618   1426.56128     535.6950     419.6618
   1426.54602     537.4556     422.0935   1426.54602     537.4556     422.0935
   1426.53076     540.5286     425.0570   1426.53076     540.5286     425.0570
   1426.51550     543.8085     427.2463   1426.51550     543.8085     427.2463
   1426.50024     546.5157     429.6083   1426.50024     546.5157     429.6083
   1426.48499     548.9863     431.5788   1426.48499     548.9863     431.5788
   1426.46973     552.3018     434.0526   1426.46973     552.3018     434.0526
   1426.45447     554.5878     437.0765   1426.45447     554.5878     437.0765
   1426.43921     557.8591     439.6131   1426.43921     557.8591     439.6131
   1426.42395     560.4459     441.6613   1426.42395     560.4459     441.6613
   1426.40869     562.6437     444.6493   1426.40869     562.6437     444.6493
   1426.39343     565.8129     447.1530   1426.39343     565.8129     447.1530
   1426.37817     568.8187     449.0823   1426.37817     568.8187     449.0823
   1426.36292     572.0032     452.2673   1426.36292     572.0032     452.2673
   1426.34766     573.4021     453.7910   1426.34766     573.4021     453.7910
   1426.33240     576.6826     456.4321   1426.33240     576.6826     456.4321
   1426.31714     579.5399     459.5054   1426.31714     579.5399     459.5054
   1426.30188     582.5661     461.1653   1426.30188     582.5661     461.1653
   1426.28662     585.0034     463.8450   1426.28662     585.0034     463.8450
   1426.27136     587.5511     466.0743   1426.27136     587.5511     466.0743
   1426.25610     590.5914     468.3766   1426.25610     590.5914     468.3766
   1426.24084     593.3926     470.4422   1426.24084     593.3926     470.4422
   1426.22559     596.4012     473.4643   1426.22559     596.4012     473.4643
   1426.21033     598.4053     475.5376   1426.21033     598.4053     475.5376
   1426.19507     600.5488     478.0179   1426.19507     600.5488     478.0179
   1426.17981     602.4037     480.7487   1426.17981     602.4037     480.7487
   1426.16455     606.1700     482.6363   1426.16455     606.1700     482.6363
   1426.14929     607.8806     484.6511   1426.14929     607.8806     484.6511
   1426.13403     610.6094     486.7657   1426.13403     610.6094     486.7657
   1426.11877     613.2947     488.6567   1426.11877     613.2947     488.6567
   1426.10352     615.7057     491.8141   1426.10352     615.7057     491.8141
   1426.08826     618.3529     493.7977   1426.08826     618.3529     493.7977
   1426.07300     619.6140     495.6344   1426.07300     619.6140     495.6344
   1426.05774     623.4358     497.8768   1426.05774     623.4358     497.8768
   1426.04248     624.8162     500.5404   1426.04248     624.8162     500.5404
   1426.02722     626.7363     502.3402   1426.02722     626.7363     502.3402
   1426.01196     629.8933     505.3102   1426.01196     629.8933     505.3102
   1425.99670     631.1827     506.3306   1425.99670     631.1827     506.3306
   1425.98145     633.7198     509.3295   1425.98145     633.7198     509.3295
   1425.96619     636.6782     510.6571   1425.96619     636.6782     510.6571
   1425.95093     637.7153     513.6910   1425.95093     637.7153     513.6910
   1425.93567     640.0010     514.6848   1425.93567     640.0010     514.6848
   1425.92041     642.8154     517.0809   1425.92041     642.8154     517.0809
   1425.90515     644.0634     519.5458   1425.90515     644.0634     519.5458
   1425.88989     646.4883     520.8391   1425.88989     646.4883     520.8391
   1425.87463     648.1501     523.0236   1425.87463     648.1501     523.0236
   1425.85938     650.6732     524.7352   1425.85938     650.6732     524.7352
   1425.84412     651.5536     526.5543   1425.84412     651.5536     526.5543
   1425.82886     654.2192     528.9991   1425.82886     654.2192     528.9991
   1425.81360     657.2659     530.2418   1425.81360     657.2659     530.2418
   1425.79834     659.1085     532.3046   1425.79834     659.1085     532.3046
   1425.78308     660.0890     534.5819   1425.78308     660.0890     534.5819
   1425.76782     662.3746     535.9145   1425.76782     662.3746     535.9145
   1425.75256     664.2017     537.2833   1425.75256     664.2017     537.2833
   1425.73730     666.1388     539.4489   1425.73730     666.1388     539.4489
   1425.72205     666.7806     540.7275   1425.72205     666.7806     540.7275
   1425.70679     669.3638     542.4279   1425.70679     669.3638     542.4279
   1425.69153     670.2820     545.8398   1425.69153     670.2820     545.8398
   1425.67627     672.0958     546.1481   1425.67627     672.0958     546.1481
   1425.66101     673.6677     548.3858   1425.66101     673.6677     548.3858
   1425.64575     675.5150     549.0010   1425.64575     675.5150     549.0010
   1425.63049     676.8492     551.4092   1425.63049     676.8492     551.4092
   1425.61523     678.0720     553.0898   1425.61523     678.0720     553.0898
   1425.59998     680.1807     555.1319   1425.59998     680.1807     555.1319
   1425.58472     680.6594     556.3116   1425.58472     680.6594     556.3116
   1425.56946     680.9548     557.5891   1425.56946     680.9548     557.5891
   1425.55420     683.0701     559.9366   1425.55420     683.0701     559.9366
   1425.53894     684.5202     561.4112   1425.53894     684.5202     561.4112
   1425.52368     685.7994     563.1663   1425.52368     685.7994     563.1663
   1425.50842     687.6051     563.9720   1425.50842     687.6051     563.9720
   1425.49316     689.6562     565.6401   1425.49316     689.6562     565.6401
   1425.47791     690.8277     567.3019   1425.47791     690.8277     567.3019
   1425.46265     692.1471     568.3105   1425.46265     692.1471     568.3105
   1425.44739     693.1887     570.0745   1425.44739     693.1887     570.0745
   1425.43213     694.1281     571.7453   1425.43213     694.1281     571.7453
   1425.41687     696.3546     573.1008   1425.41687     696.3546     573.1008
   1425.40161     694.2017     573.6093   1425.40161     694.2017     573.6093
   1425.38635     697.9160     576.1176   1425.38635     697.9160     576.1176
   1425.37109     699.0663     576.4774   1425.37109     699.0663     576.4774
   1425.35583     699.3406     578.7155   1425.35583     699.3406     578.7155
   1425.34058     699.9256     578.7859   1425.34058     699.9256     578.7859
   1425.32532     701.0825     580.7729   1425.32532     701.0825     580.7729
   1425.31006     703.2540     582.3557   1425.31006     703.2540     582.3557
   1425.29480     703.3433     583.3890   1425.29480     703.3433     583.3890
   1425.27954     703.6547     584.2642   1425.27954     703.6547     584.2642
   1425.26428     704.7631     583.8527   1425.26428     704.7631     583.8527
   1425.24902     705.2591     585.6232   1425.24902     705.2591     585.6232
   1425.23376     706.1883     587.3118   1425.23376     706.1883     587.3118
   1425.21851     707.4067     589.3372   1425.21851     707.4067     589.3372
   1425.20325     708.4599     589.9515   1425.20325     708.4599     589.9515
   1425.18799     708.8639     590.5317   1425.18799     708.8639     590.5317
   1425.17273     709.5328     591.3179   1425.17273     709.5328     591.3179
   1425.15747     710.5962     593.0362   1425.15747     710.5962     593.0362
   1425.14221     710.2922     594.2991   1425.14221     710.2922     594.2991
   1425.12695     711.1646     594.9615   1425.12695     711.1646     594.9615
   1425.11169     711.2349     596.9449   1425.11169     711.2349     596.9449
   1425.09644     713.5759     597.1923   1425.09644     713.5759     597.1923
   1425.08118     713.4329     598.3973   1425.08118     713.4329     598.3973
   1425.06592     713.4509     597.7941   1425.06592     713.4509     597.7941
   1425.05066     712.3497     599.9525   1425.05066     712.3497     599.9525
   1425.03540     715.2778     601.8759   1425.03540     715.2778     601.8759
   1425.02014     714.4253     601.5156   1425.02014     714.4253     601.5156
   1425.00488     715.9006     602.6550   1425.00488     715.9006     602.6550
   1424.98962     715.8636     603.3613   1424.98962     715.8636     603.3613
   1424.97437     717.5114     604.0109   1424.97437     717.5114     604.0109
   1424.95911     716.7789     604.3871   1424.95911     716.7789     604.3871
   1424.94385     717.6970     605.4241   1424.94385     717.6970     605.4241
   1424.92859     716.9603     606.5198   1424.92859     716.9603     606.5198
   1424.91333     717.0235     607.2122   1424.91333     717.0235     607.2122
   1424.89807     718.8016     607.8559   1424.89807     718.8016     607.8559
   1424.88281     718.4175     607.9684   1424.88281     718.4175     607.9684
   1424.86755     719.5710     608.1192   1424.86755     719.5710     608.1192
   1424.85229     718.8143     610.3049   1424.85229     718.8143     610.3049
   1424.83704     719.3149     609.8104   1424.83704     719.3149     609.8104
   1424.82178     718.5223     610.5229   1424.82178     718.5223     610.5229
   1424.80652     720.0227     611.4128   1424.80652     720.0227     611.4128
   1424.79126     719.4675     613.2002   1424.79126     719.4675     613.2002
   1424.77600     719.8832     613.9039   1424.77600     719.8832     613.9039
   1424.76074     720.8370     613.7042   1424.76074     720.8370     613.7042
   1424.74548     719.6891     614.4316   1424.74548     719.6891     614.4316
   1424.73022     719.0399     614.7198   1424.73022     719.0399     614.7198
   1424.71497     720.6309     615.2715   1424.71497     720.6309     615.2715
   1424.69971     720.3814     615.4838   1424.69971     720.3814     615.4838
   1424.68445     719.5550     616.1123   1424.68445     719.5550     616.1123
   1424.66919     719.9683     616.9552   1424.66919     719.9683     616.9552
   1424.65393     719.9182     616.8182   1424.65393     719.9182     616.8182
   1424.63867     719.8128     617.3986   1424.63867     719.8128     617.3986
   1424.62341     720.2545     618.1237   1424.62341     720.2545     618.1237
   1424.60815     719.0577     618.8317   1424.60815     719.0577     618.8317
   1424.59290     720.8854     617.8797   1424.59290     720.8854     617.8797
   1424.57764     719.9781     619.0456   1424.57764     719.9781     619.0456
   1424.56238     720.4594     620.1365   1424.56238     720.4594     620.1365
   1424.54712     719.6816     620.0433   1424.54712     719.6816     620.0433
   1424.53186     720.4352     619.5985   1424.53186     720.4352     619.5985
   1424.51660     719.7338     621.3055   1424.51660     719.7338     621.3055
   1424.50134     719.7430     620.9047   1424.50134     719.7430     620.9047
   1424.48608     720.1230     620.4478   1424.48608     720.1230     620.4478
   1424.47083     719.5667     619.6097   1424.47083     719.5667     619.6097
   1424.45557     720.1442     620.9136   1424.45557     720.1442     620.9136
   1424.44031     719.7456     622.5166   1424.44031     719.7456     622.5166
   1424.42505     718.5828     623.0619   1424.42505     718.5828     623.0619
   1424.40979     718.8340     622.6430   1424.40979     718.8340     622.6430
   1424.39453     719.2768     622.3625   1424.39453     719.2768     622.3625
   1424.37927     719.3452     622.9817   1424.37927     719.3452     622.9817
   1424.36401     718.9771     622.8796   1424.36401     718.9771     622.8796
   1424.34875     718.6631     623.4138   1424.34875     718.6631     623.4138
   1424.33350     718.9014     623.6523   1424.33350     718.9014     623.6523
   1424.31824     717.3522     623.3449   1424.31824     717.3522     623.3449
   1424.30298     718.6257     623.1220   1424.30298     718.6257     623.1220
   1424.28772     717.9449     624.3910   1424.28772     717.9449     624.3910
   1424.27246     717.5425     623.9125   1424.27246     717.5425     623.9125
   1424.25720     718.5126     624.4587   1424.25720     718.5126     624.4587
   1424.24194     718.1448     623.7620   1424.24194     718.1448     623.7620
   1424.22668     718.0360     624.6591   1424.22668     718.0360     624.6591
   1424.21143     717.0952     623.8713   1424.21143     717.0952     623.8713
   1424.19617     716.6520     624.8929   1424.19617     716.6520     624.8929
   1424.18091     716.3807     624.4234   1424.18091     716.3807     624.4234
   1424.16565     716.1124     624.7808   1424.16565     716.1124     624.7808
   1424.15039     715.8130     624.8679   1424.15039     715.8130     624.8679
   1424.13513     715.2000     624.4379   1424.13513     715.2000     624.4379
   1424.11987     715.7010     624.9610   1424.11987     715.7010     624.9610
   1424.10461     714.2947     624.9852   1424.10461     714.2947     624.9852
   1424.08936     713.8300     624.2127   1424.08936     713.8300     624.2127
   1424.07410     713.7563     624.5402   1424.07410     713.7563     624.5402
   1424.05884     714.3541     624.4767   1424.05884     714.3541     624.4767
   1424.04358     714.2912     624.9479   1424.04358     714.2912     624.9479
   1424.02832     713.2586     623.8106   1424.02832     713.2586     623.8106
   1424.01306     712.4176     624.4349   1424.01306     712.4176     624.4349
   1423.99780     712.1381     624.2463   1423.99780     712.1381     624.2463
   1423.98254     712.8964     624.3351   1423.98254     712.8964     624.3351
   1423.96729     711.7115     624.0759   1423.96729     711.7115     624.0759
   1423.95203     711.8842     624.1583   1423.95203     711.8842     624.1583
   1423.93677     711.9664     623.5793   1423.93677     711.9664     623.5793
   1423.92151     711.8205     624.3391   1423.92151     711.8205     624.3391
   1423.90625     710.2197     623.4202   1423.90625     710.2197     623.4202
   1423.89099     711.2605     624.3026   1423.89099     711.2605     624.3026
   1423.87573     710.3145     623.2052   1423.87573     710.3145     623.2052
   1423.86047     709.3071     622.6945   1423.86047     709.3071     622.6945
   1423.84521     709.7361     621.5891   1423.84521     709.7361     621.5891
   1423.82996     709.6663     622.5761   1423.82996     709.6663     622.5761
   1423.81470     708.8013     621.8412   1423.81470     708.8013     621.8412
   1423.79944     708.1644     622.5656   1423.79944     708.1644     622.5656
   1423.78418     708.4442     621.9811   1423.78418     708.4442     621.9811
   1423.76892     708.7821     621.1957   1423.76892     708.7821     621.1957
   1423.75366     707.7834     621.0248   1423.75366     707.7834     621.0248
   1423.73840     707.4645     620.5269   1423.73840     707.4645     620.5269
   1423.72314     708.0251     620.1776   1423.72314     708.0251     620.1776
   1423.70789     707.2666     620.4382   1423.70789     707.2666     620.4382
   1423.69263     706.7426     619.4130   1423.69263     706.7426     619.4130
   1423.67737     706.3718     619.5093   1423.67737     706.3718     619.5093
   1423.66211     705.1843     619.8671   1423.66211     705.1843     619.8671
   1423.64685     705.1833     620.0488   1423.64685     705.1833     620.0488
   1423.63159     704.6650     618.5857   1423.63159     704.6650     618.5857
   1423.61633     704.6115     617.1856   1423.61633     704.6115     617.1856
   1423.60107     703.5345     617.8235   1423.60107     703.5345     617.8235
   1423.58582     704.0822     617.7501   1423.58582     704.0822     617.7501
   1423.57056     703.7955     616.8593   1423.57056     703.7955     616.8593
   1423.55530     703.3784     616.1208   1423.55530     703.3784     616.1208
   1423.54004     702.7426     615.5271   1423.54004     702.7426     615.5271
   1423.52478     702.7468     616.2264   1423.52478     702.7468     616.2264
   1423.50952     702.2700     615.5841   1423.50952     702.2700     615.5841
   1423.49426     701.7567     614.7491   1423.49426     701.7567     614.7491
   1423.47900     701.7282     614.0994   1423.47900     701.7282     614.0994
   1423.46375     700.8558     614.1388   1423.46375     700.8558     614.1388
   1423.44849     701.5808     612.7211   1423.44849     701.5808     612.7211
   1423.43323     700.9447     612.4333   1423.43323     700.9447     612.4333
   1423.41797     700.4118     613.0607   1423.41797     700.4118     613.0607
   1423.40271     699.7245     612.4642   1423.40271     699.7245     612.4642
   1423.38745     700.0433     610.8445   1423.38745     700.0433     610.8445
   1423.37219     699.1951     610.9966   1423.37219     699.1951     610.9966
   1423.35693     700.3814     610.7595   1423.35693     700.3814     610.7595
   1423.34167     698.1765     609.2178   1423.34167     698.1765     609.2178
   1423.32642     699.0603     608.9016   1423.32642     699.0603     608.9016
   1423.31116     697.6201     608.1716   1423.31116     697.6201     608.1716
   1423.29590     697.6567     607.1028   1423.29590     697.6567     607.1028
   1423.28064     697.6738     607.2826   1423.28064     697.6738     607.2826
   1423.26538     697.6949     607.2335   1423.26538     697.6949     607.2335
   1423.25012     696.7667     605.7532   1423.25012     696.7667     605.7532
   1423.23486     697.3971     605.4432   1423.23486     697.3971     605.4432
   1423.21960     697.0837     604.8992   1423.21960     697.0837     604.8992
   1423.20435     695.7762     604.3962   1423.20435     695.7762     604.3962
   1423.18909     695.7346     603.8358   1423.18909     695.7346     603.8358
   1423.17383     696.4230     603.1011   1423.17383     696.4230     603.1011
   1423.15857     696.2239     601.8840   1423.15857     696.2239     601.8840
   1423.14331     695.0792     602.1155   1423.14331     695.0792     602.1155
   1423.12805     694.6552     600.5956   1423.12805     694.6552     600.5956
   1423.11279     693.8629     600.8577   1423.11279     693.8629     600.8577
   1423.09753     694.5497     599.4423   1423.09753     694.5497     599.4423
   1423.08228     694.3553     599.5056   1423.08228     694.3553     599.5056
   1423.06702     694.2383     599.0249   1423.06702     694.2383     599.0249
   1423.05176     693.7501     598.0744   1423.05176     693.7501     598.0744
   1423.03650     693.8790     597.0711   1423.03650     693.8790     597.0711
   1423.02124     693.4322     596.7943   1423.02124     693.4322     596.7943
   1423.00598     691.6825     594.6727   1423.00598     691.6825     594.6727
   1422.99072     692.9441     594.2292   1422.99072     692.9441     594.2292
   1422.97546     691.5657     594.3968   1422.97546     691.5657     594.3968
   1422.96021     691.3322     592.9667   1422.96021     691.3322     592.9667
   1422.94495     691.6168     591.9877   1422.94495     691.6168     591.9877
   1422.92969     690.8177     591.6559   1422.92969     690.8177     591.6559
   1422.91443     691.8116     591.4091   1422.91443     691.8116     591.4091
   1422.89917     690.7758     589.9988   1422.89917     690.7758     589.9988
   1422.88391     690.2614     589.7189   1422.88391     690.2614     589.7189
   1422.86865     690.3152     588.6899   1422.86865     690.3152     588.6899
   1422.85339     691.2129     588.2097   1422.85339     691.2129     588.2097
   1422.83813     689.5856     587.3531   1422.83813     689.5856     587.3531
   1422.82288     690.0563     586.3540   1422.82288     690.0563     586.3540
   1422.80762     689.9407     586.2365   1422.80762     689.9407     586.2365
   1422.79236     689.5966     585.5461   1422.79236     689.5966     585.5461
   1422.77710     687.9913     584.2744   1422.77710     687.9913     584.2744
   1422.76184     689.2720     583.7272   1422.76184     689.2720     583.7272
   1422.74658     688.7944     582.9814   1422.74658     688.7944     582.9814
   1422.73132     688.7219     581.3330   1422.73132     688.7219     581.3330
   1422.71606     689.4307     580.5771   1422.71606     689.4307     580.5771
   1422.70081     687.8712     580.1962   1422.70081     687.8712     580.1962
   1422.68555     687.7495     578.9099   1422.68555     687.7495     578.9099
   1422.67029     686.0790     578.0104   1422.67029     686.0790     578.0104
   1422.65503     686.7076     576.6833   1422.65503     686.7076     576.6833
   1422.63977     686.3013     575.5066   1422.63977     686.3013     575.5066
   1422.62451     686.7478     575.5774   1422.62451     686.7478     575.5774
   1422.60925     686.3708     574.9958   1422.60925     686.3708     574.9958
   1422.59399     685.5293     573.9648   1422.59399     685.5293     573.9648
   1422.57874     685.3406     572.7828   1422.57874     685.3406     572.7828
   1422.56348     685.6604     572.1227   1422.56348     685.6604     572.1227
   1422.54822     684.5563     570.5126   1422.54822     684.5563     570.5126
   1422.53296     686.0991     570.9043   1422.53296     686.0991     570.9043
   1422.51770     684.6638     569.0112   1422.51770     684.6638     569.0112
   1422.50244     684.9694     568.7018   1422.50244     684.9694     568.7018
   1422.48718     685.5051     567.4960   1422.48718     685.5051     567.4960
   1422.47192     684.0209     566.0815   1422.47192     684.0209     566.0815
   1422.45667     684.5573     565.1118   1422.45667     684.5573     565.1118
   1422.44141     684.6282     565.0224   1422.44141     684.6282     565.0224
   1422.42615     683.1688     563.3480   1422.42615     683.1688     563.3480
   1422.41089     683.2758     563.1826   1422.41089     683.2758     563.1826
   1422.39563     682.7252     561.7867   1422.39563     682.7252     561.7867
   1422.38037     683.6895     561.4301   1422.38037     683.6895     561.4301
   1422.36511     682.8114     560.0072   1422.36511     682.8114     560.0072
   1422.34985     682.4163     558.7484   1422.34985     682.4163     558.7484
   1422.33459     682.2078     557.5237   1422.33459     682.2078     557.5237
   1422.31934     682.2638     556.1383   1422.31934     682.2638     556.1383
   1422.30408     680.8452     556.7455   1422.30408     680.8452     556.7455
   1422.28882     682.1061     554.8072   1422.28882     682.1061     554.8072
   1422.27356     682.6664     553.3342   1422.27356     682.6664     553.3342
   1422.25830     681.5455     553.6181   1422.25830     681.5455     553.6181
   1422.24304     681.8809     552.3011   1422.24304     681.8809     552.3011
   1422.22778     681.7416     551.2921   1422.22778     681.7416     551.2921
   1422.21252     681.4052     550.8019   1422.21252     681.4052     550.8019
   1422.19727     680.6962     548.6586   1422.19727     680.6962     548.6586
   1422.18201     681.0999     547.8706   1422.18201     681.0999     547.8706
   1422.16675     680.4980     546.4726   1422.16675     680.4980     546.4726
   1422.15149     679.5797     546.2169   1422.15149     679.5797     546.2169
   1422.13623     679.5144     545.4175   1422.13623     679.5144     545.4175
   1422.12097     679.2994     543.8792   1422.12097     679.2994     543.8792
   1422.10571     678.9504     542.7374   1422.10571     678.9504     542.7374
   1422.09045     680.5212     541.5078   1422.09045     680.5212     541.5078
   1422.07520     678.7736     540.9577   1422.07520     678.7736     540.9577
   1422.05994     677.8959     540.0065   1422.05994     677.8959     540.0065
   1422.04468     678.6851     538.3431   1422.04468     678.6851     538.3431
   1422.02942     678.7557     537.8220   1422.02942     678.7557     537.8220
   1422.01416     678.4329     537.1200   1422.01416     678.4329     537.1200
   1421.99890     677.6589     536.6249   1421.99890     677.6589     536.6249
   1421.98364     677.7780     534.3021   1421.98364     677.7780     534.3021
   1421.96838     678.1116     533.8608   1421.96838     678.1116     533.8608
   1421.95312     676.7274     532.2665   1421.95312     676.7274     532.2665
   1421.93787     677.2672     532.0882   1421.93787     677.2672     532.0882
   1421.92261     678.3090     530.6805   1421.92261     678.3090     530.6805
   1421.90735     676.7800     529.8101   1421.90735     676.7800     529.8101
   1421.89209     676.6407     528.5980   1421.89209     676.6407     528.5980
   1421.87683     677.0362     527.7274   1421.87683     677.0362     527.7274
   1421.86157     675.4415     526.5636   1421.86157     675.4415     526.5636
   1421.84631     676.0272     525.1553   1421.84631     676.0272     525.1553
   1421.83105     676.2600     524.0861   1421.83105     676.2600     524.0861
   1421.81580     675.3464     523.2164   1421.81580     675.3464     523.2164
   1421.80054     674.8677     522.3764   1421.80054     674.8677     522.3764
   1421.78528     674.7960     521.2906   1421.78528     674.7960     521.2906
   1421.77002     674.4026     520.1730   1421.77002     674.4026     520.1730
   1421.75476     673.8412     519.3690   1421.75476     673.8412     519.3690
   1421.73950     674.8314     517.2173   1421.73950     674.8314     517.2173
   1421.72424     674.4216     516.6887   1421.72424     674.4216     516.6887
   1421.70898     674.3596     515.4712   1421.70898     674.3596     515.4712
   1421.69373     674.7905     515.1063   1421.69373     674.7905     515.1063
   1421.67847     673.4112     513.5207   1421.67847     673.4112     513.5207
   1421.66321     673.4613     512.6135   1421.66321     673.4613     512.6135
   1421.64795     672.5444     511.1384   1421.64795     672.5444     511.1384
   1421.63269     674.0182     510.5628   1421.63269     674.0182     510.5628
   1421.61743     671.9561     508.8847   1421.61743     671.9561     508.8847
   1421.60217     673.1003     508.4843   1421.60217     673.1003     508.4843
   1421.58691     672.0748     507.3112   1421.58691     672.0748     507.3112
   1421.57166     672.7486     505.7657   1421.57166     672.7486     505.7657
   1421.55640     671.3514     505.0976   1421.55640     671.3514     505.0976
   1421.54114     671.7239     504.2953   1421.54114     671.7239     504.2953
   1421.52588     671.5127     503.1400   1421.52588     671.5127     503.1400
   1421.51062     670.9424     502.0182   1421.51062     670.9424     502.0182
   1421.49536     670.3612     500.8487   1421.49536     670.3612     500.8487
   1421.48010     671.2697     499.4092   1421.48010     671.2697     499.4092
   1421.46484     670.4808     498.1262   1421.46484     670.4808     498.1262
   1421.44958     670.0063     497.8078   1421.44958     670.0063     497.8078
   1421.43433     670.1242     496.2077   1421.43433     670.1242     496.2077
   1421.41907     669.7197     494.8601   1421.41907     669.7197     494.8601
   1421.40381     669.4429     494.0568   1421.40381     669.4429     494.0568
   1421.38855     669.1145     493.5861   1421.38855     669.1145     493.5861
   1421.37329     668.9681     492.7408   1421.37329     668.9681     492.7408
   1421.35803     667.6046     490.9661   1421.35803     667.6046     490.9661
   1421.34277     669.1919     490.3274   1421.34277     669.1919     490.3274
   1421.32751     668.8250     489.1227   1421.32751     668.8250     489.1227
   1421.31226     668.3510     487.0816   1421.31226     668.3510     487.0816
   1421.29700     668.8019     486.9734   1421.29700     668.8019     486.9734
   1421.28174     667.5246     485.8477   1421.28174     667.5246     485.8477
   1421.26648     666.6647     484.3881   1421.26648     666.6647     484.3881
   1421.25122     666.6775     483.2145   1421.25122     666.6775     483.2145
   1421.23596     666.4281     483.0253   1421.23596     666.4281     483.0253
   1421.22070     666.5684     482.4032   1421.22070     666.5684     482.4032
   1421.20544     665.3303     480.9009   1421.20544     665.3303     480.9009
   1421.19019     666.2867     479.2789   1421.19019     666.2867     479.2789
   1421.17493     665.2948     478.6452   1421.17493     665.2948     478.6452
   1421.15967     664.7078     476.6219   1421.15967     664.7078     476.6219
   1421.14441     664.3295     475.9847   1421.14441     664.3295     475.9847
   1421.12915     664.8925     476.1603   1421.12915     664.8925     476.1603
   1421.11389     664.9567     474.8057   1421.11389     664.9567     474.8057
   1421.09863     665.4105     473.8691   1421.09863     665.4105     473.8691
   1421.08337     663.4828     472.4580   1421.08337     663.4828     472.4580
   1421.06812     664.1589     470.7756   1421.06812     664.1589     470.7756
   1421.05286     663.7313     470.7932   1421.05286     663.7313     470.7932
   1421.03760     663.4952     469.5795   1421.03760     663.4952     469.5795
   1421.02234     664.2663     468.5971   1421.02234     664.2663     468.5971
   1421.00708     664.2965     468.0165   1421.00708     664.2965     468.0165
   1420.99182     663.0911     466.3943   1420.99182     663.0911     466.3943
   1420.97656     662.9344     465.2709   1420.97656     662.9344     465.2709
   1420.96130     662.0478     464.6064   1420.96130     662.0478     464.6064
   1420.94604     662.2084     463.5098   1420.94604     662.2084     463.5098
   1420.93079     662.8094     462.7362   1420.93079     662.8094     462.7362
   1420.91553     661.2243     461.9791   1420.91553     661.2243     461.9791
   1420.90027     661.9170     461.4370   1420.90027     661.9170     461.4370
   1420.88501     660.8561     459.6331   1420.88501     660.8561     459.6331
   1420.86975     661.5216     459.6686   1420.86975     661.5216     459.6686
   1420.85449     661.4847     457.8796   1420.85449     661.4847     457.8796
   1420.83923     660.8248     456.7595   1420.83923     660.8248     456.7595
   1420.82397     662.0845     456.6927   1420.82397     662.0845     456.6927
   1420.80872     661.6993     455.6800   1420.80872     661.6993     455.6800
   1420.79346     660.1545     454.8394   1420.79346     660.1545     454.8394
   1420.77820     660.3461     453.9901   1420.77820     660.3461     453.9901
   1420.76294     659.3427     453.1814   1420.76294     659.3427     453.1814
   1420.74768     660.3162     452.0340   1420.74768     660.3162     452.0340
   1420.73242     660.7902     451.9288   1420.73242     660.7902     451.9288
   1420.71716     661.2173     450.0403   1420.71716     661.2173     450.0403
   1420.70190     660.7239     451.0292   1420.70190     660.7239     451.0292
   1420.68665     660.7438     448.8852   1420.68665     660.7438     448.8852
   1420.67139     660.0383     448.7990   1420.67139     660.0383     448.7990
   1420.65613     661.3512     447.9384   1420.65613     661.3512     447.9384
   1420.64087     659.6154     447.2552   1420.64087     659.6154     447.2552
   1420.62561     660.5247     446.9322   1420.62561     660.5247     446.9322
   1420.61035     660.3102     446.2560   1420.61035     660.3102     446.2560
   1420.59509     660.2362     445.1968   1420.59509     660.2362     445.1968
   1420.57983     661.7587     445.3606   1420.57983     661.7587     445.3606
   1420.56458     660.9449     444.6103   1420.56458     660.9449     444.6103
   1420.54932     661.4855     444.9246   1420.54932     661.4855     444.9246
   1420.53406     662.3978     445.5521   1420.53406     662.3978     445.5521
   1420.51880     663.6835     444.4695   1420.51880     663.6835     444.4695
   1420.50354     663.4609     442.8943   1420.50354     663.4609     442.8943
   1420.48828     663.1369     442.5871   1420.48828     663.1369     442.5871
   1420.47302     662.2006     441.3917   1420.47302     662.2006     441.3917
   1420.45776     662.1125     441.0895   1420.45776     662.1125     441.0895
   1420.44250     662.7220     439.7405   1420.44250     662.7220     439.7405
   1420.42725     662.4668     439.7517   1420.42725     662.4668     439.7517
   1420.41199     662.4036     438.6571   1420.41199     662.4036     438.6571
   1420.39673     662.8569     438.7316   1420.39673     662.8569     438.7316
   1420.38147     664.3156     438.2824   1420.38147     664.3156     438.2824
   1420.36621     664.6910     438.6470   1420.36621     664.6910     438.6470
   1420.35095     668.0984     439.7957   1420.35095     668.0984     439.7957
   1420.33569     672.1343     442.2419   1420.33569     672.1343     442.2419
   1420.32043     679.7110     446.0834   1420.32043     679.7110     446.0834
   1420.30518     695.4102     454.9825   1420.30518     695.4102     454.9825
   1420.28992     721.4818     470.7561   1420.28992     721.4818     470.7561
   1420.27466     778.3055     505.2495   1420.27466     778.3055     505.2495
   1420.25940     921.7162     595.6305   1420.25940     921.7162     595.6305
   1420.24414    1146.7476     735.6655   1420.24414    1146.7476     735.6655
   1420.22888    1330.4678     851.2676   1420.22888    1330.4678     851.2676
   1420.21362    1517.6576     968.9749   1420.21362    1517.6576     968.9749
   1420.19836    1736.1194    1103.6038   1420.19836    1736.1194    1103.6038
   1420.18311    1919.1370    1216.3253   1420.18311    1919.1370    1216.3253
   1420.16785    1721.4906    1094.4604   1420.16785    1721.4906    1094.4604
   1420.15259    1591.4972    1014.5054   1420.15259    1591.4972    1014.5054
   1420.13733    1794.8083    1135.0299   1420.13733    1794.8083    1135.0299
   1420.12207    1815.6609    1148.3524   1420.12207    1815.6609    1148.3524
   1420.10681    1854.1229    1168.4437   1420.10681    1854.1229    1168.4437
   1420.09155    1882.4167    1185.7299   1420.09155    1882.4167    1185.7299
   1420.07629    2050.4578    1282.0919   1420.07629    2050.4578    1282.0919
   1420.06104    2246.5559    1404.3311   1420.06104    2246.5559    1404.3311
   1420.04578    2207.9192    1381.1058   1420.04578    2207.9192    1381.1058
   1420.03052    1972.9147    1237.4097   1420.03052    1972.9147    1237.4097
   1420.01526    1543.4865     968.2907   1420.01526    1543.4865     968.2907
   1420.00000    1214.1715     766.1581   1420.00000    1214.1715     766.1581
   1419.98474     884.8568     564.0254   1419.98474     884.8568     564.0254
   1419.96948     786.4153     501.1204   1419.96948     786.4153     501.1204
   1419.95422     734.3279     467.6760   1419.95422     734.3279     467.6760
   1419.93896     703.5408     448.7197   1419.93896     703.5408     448.7197
   1419.92371     684.9540     436.1498   1419.92371     684.9540     436.1498
   1419.90845     674.2409     428.2155   1419.90845     674.2409     428.2155
   1419.89319     666.0820     423.2768   1419.89319     666.0820     423.2768
   1419.87793     662.0922     419.9901   1419.87793     662.0922     419.9901
   1419.86267     657.7722     418.1733   1419.86267     657.7722     418.1733
   1419.84741     656.8871     416.4244   1419.84741     656.8871     416.4244
   1419.83215     655.7289     415.8637   1419.83215     655.7289     415.8637
   1419.81689     655.7220     414.7995   1419.81689     655.7220     414.7995
   1419.80164     655.4957     413.0654   1419.80164     655.4957     413.0654
   1419.78638     653.0661     412.6522   1419.78638     653.0661     412.6522
   1419.77112     652.9216     412.5146   1419.77112     652.9216     412.5146
   1419.75586     654.2496     411.8487   1419.75586     654.2496     411.8487
   1419.74060     652.1750     411.5422   1419.74060     652.1750     411.5422
   1419.72534     652.9685     411.2329   1419.72534     652.9685     411.2329
   1419.71008     651.8735     410.9297   1419.71008     651.8735     410.9297
   1419.69482     652.7910     410.3713   1419.69482     652.7910     410.3713
   1419.67957     652.1939     409.4852   1419.67957     652.1939     409.4852
   1419.66431     653.4664     409.5598   1419.66431     653.4664     409.5598
   1419.64905     653.2802     409.5132   1419.64905     653.2802     409.5132
   1419.63379     651.8891     409.1158   1419.63379     651.8891     409.1158
   1419.61853     651.5573     409.3492   1419.61853     651.5573     409.3492
   1419.60327     652.2917     409.0207   1419.60327     652.2917     409.0207
   1419.58801     653.8599     408.6721   1419.58801     653.8599     408.6721
   1419.57275     652.3768     409.0727   1419.57275     652.3768     409.0727
   1419.55750     653.6500     408.0000   1419.55750     653.6500     408.0000
   1419.54224     654.2065     408.4873   1419.54224     654.2065     408.4873
   1419.52698     654.5519     408.2368   1419.52698     654.5519     408.2368
   1419.51172     654.5364     408.3797   1419.51172     654.5364     408.3797
   1419.49646     654.3898     407.7799   1419.49646     654.3898     407.7799
   1419.48120     655.1532     408.2559   1419.48120     655.1532     408.2559
   1419.46594     653.4741     407.8295   1419.46594     653.4741     407.8295
   1419.45068     654.7372     408.3863   1419.45068     654.7372     408.3863
   1419.43542     655.2451     407.7598   1419.43542     655.2451     407.7598
   1419.42017     655.6825     407.6257   1419.42017     655.6825     407.6257
   1419.40491     655.7077     407.2428   1419.40491     655.7077     407.2428
   1419.38965     656.5898     407.3173   1419.38965     656.5898     407.3173
   1419.37439     656.5486     406.8022   1419.37439     656.5486     406.8022
   1419.35913     657.2689     407.6682   1419.35913     657.2689     407.6682
   1419.34387     656.6641     407.3258   1419.34387     656.6641     407.3258
   1419.32861     657.0744     407.5668   1419.32861     657.0744     407.5668
   1419.31335     658.2328     408.0331   1419.31335     658.2328     408.0331
   1419.29810     658.8081     408.2670   1419.29810     658.8081     408.2670
   1419.28284     658.6462     407.6486   1419.28284     658.6462     407.6486
   1419.26758     659.2508     408.2917   1419.26758     659.2508     408.2917
   1419.25232     659.1910     408.6030   1419.25232     659.1910     408.6030
   1419.23706     659.2466     408.8104   1419.23706     659.2466     408.8104
   1419.22180     659.6122     408.1210   1419.22180     659.6122     408.1210
   1419.20654     659.5117     408.2559   1419.20654     659.5117     408.2559
   1419.19128     661.5402     409.1551   1419.19128     661.5402     409.1551
   1419.17603     660.6534     409.6592   1419.17603     660.6534     409.6592
   1419.16077     661.6436     408.3625   1419.16077     661.6436     408.3625
   1419.14551     661.3170     408.9126   1419.14551     661.3170     408.9126
   1419.13025     661.6023     409.3875   1419.13025     661.6023     409.3875
   1419.11499     662.3506     409.3920   1419.11499     662.3506     409.3920
   1419.09973     664.4261     410.2052   1419.09973     664.4261     410.2052
   1419.08447     664.1392     409.9849   1419.08447     664.1392     409.9849
   1419.06921     664.1902     410.3107   1419.06921     664.1902     410.3107
   1419.05396     664.5344     410.3547   1419.05396     664.5344     410.3547
   1419.03870     665.6673     410.3558   1419.03870     665.6673     410.3558
   1419.02344     666.2563     411.1450   1419.02344     666.2563     411.1450
   1419.00818     665.4018     411.2199   1419.00818     665.4018     411.2199
   1418.99292     667.8610     410.7156   1418.99292     667.8610     410.7156
   1418.97766     667.2867     412.1921   1418.97766     667.2867     412.1921
   1418.96240     668.2318     411.8033   1418.96240     668.2318     411.8033
   1418.94714     668.3934     412.2654   1418.94714     668.3934     412.2654
   1418.93188     669.4072     412.6744   1418.93188     669.4072     412.6744
   1418.91663     668.6910     413.9338   1418.91663     668.6910     413.9338
   1418.90137     671.4070     414.0967   1418.90137     671.4070     414.0967
   1418.88611     670.4758     413.1166   1418.88611     670.4758     413.1166
   1418.87085     672.4636     414.2639   1418.87085     672.4636     414.2639
   1418.85559     672.1158     413.7619   1418.85559     672.1158     413.7619
   1418.84033     673.3735     415.2445   1418.84033     673.3735     415.2445
   1418.82507     673.8834     415.8688   1418.82507     673.8834     415.8688
   1418.80981     672.6484     415.4023   1418.80981     672.6484     415.4023
   1418.79456     674.5247     416.4094   1418.79456     674.5247     416.4094
   1418.77930     674.8398     416.7737   1418.77930     674.8398     416.7737
   1418.76404     676.5045     417.3696   1418.76404     676.5045     417.3696
   1418.74878     675.5397     417.9244   1418.74878     675.5397     417.9244
   1418.73352     676.4257     417.8148   1418.73352     676.4257     417.8148
   1418.71826     677.7985     418.3549   1418.71826     677.7985     418.3549
   1418.70300     679.1087     419.0617   1418.70300     679.1087     419.0617
   1418.68774     678.5193     418.9112   1418.68774     678.5193     418.9112
   1418.67249     678.5278     419.8648   1418.67249     678.5278     419.8648
   1418.65723     680.7037     420.5744   1418.65723     680.7037     420.5744
   1418.64197     680.2962     421.6925   1418.64197     680.2962     421.6925
   1418.62671     681.7204     422.2661   1418.62671     681.7204     422.2661
   1418.61145     681.5211     422.0486   1418.61145     681.5211     422.0486
   1418.59619     682.4416     422.4743   1418.59619     682.4416     422.4743
   1418.58093     683.3925     423.5675   1418.58093     683.3925     423.5675
   1418.56567     684.8264     423.9505   1418.56567     684.8264     423.9505
   1418.55042     684.6540     425.1005   1418.55042     684.6540     425.1005
   1418.53516     684.6462     424.7256   1418.53516     684.6462     424.7256
   1418.51990     686.6666     424.9470   1418.51990     686.6666     424.9470
   1418.50464     687.7564     426.0862   1418.50464     687.7564     426.0862
   1418.48938     687.8619     426.5125   1418.48938     687.8619     426.5125
   1418.47412     688.9592     428.0367   1418.47412     688.9592     428.0367
   1418.45886     688.9276     428.3851   1418.45886     688.9276     428.3851
   1418.44360     690.6804     428.9781   1418.44360     690.6804     428.9781
   1418.42834     690.5921     429.4094   1418.42834     690.5921     429.4094
   1418.41309     692.8139     429.7345   1418.41309     692.8139     429.7345
   1418.39783     692.9552     430.8148   1418.39783     692.9552     430.8148
   1418.38257     692.7753     431.3451   1418.38257     692.7753     431.3451
   1418.36731     694.7781     432.1828   1418.36731     694.7781     432.1828
   1418.35205     694.9866     432.4015   1418.35205     694.9866     432.4015
   1418.33679     694.5669     433.0599   1418.33679     694.5669     433.0599
   1418.32153     696.6513     433.9967   1418.32153     696.6513     433.9967
   1418.30627     697.8474     435.4420   1418.30627     697.8474     435.4420
   1418.29102     697.4819     435.6871   1418.29102     697.4819     435.6871
   1418.27576     699.0896     436.6104   1418.27576     699.0896     436.6104
   1418.26050     698.9698     437.2684   1418.26050     698.9698     437.2684
   1418.24524     700.4901     438.5513   1418.24524     700.4901     438.5513
   1418.22998     701.0164     438.8808   1418.22998     701.0164     438.8808
   1418.21472     703.1666     439.7995   1418.21472     703.1666     439.7995
   1418.19946     703.1940     439.9546   1418.19946     703.1940     439.9546
   1418.18420     703.4649     441.2110   1418.18420     703.4649     441.2110
   1418.16895     705.1818     441.7785   1418.16895     705.1818     441.7785
   1418.15369     706.2672     443.7770   1418.15369     706.2672     443.7770
   1418.13843     706.2610     443.1614   1418.13843     706.2610     443.1614
   1418.12317     707.5192     444.6195   1418.12317     707.5192     444.6195
   1418.10791     708.8186     445.1764   1418.10791     708.8186     445.1764
   1418.09265     708.2380     446.4465   1418.09265     708.2380     446.4465
   1418.07739     710.1963     447.5807   1418.07739     710.1963     447.5807
   1418.06213     710.8480     447.9773   1418.06213     710.8480     447.9773
   1418.04688     712.1262     449.1535   1418.04688     712.1262     449.1535
   1418.03162     713.0582     449.5859   1418.03162     713.0582     449.5859
   1418.01636     713.5620     451.7120   1418.01636     713.5620     451.7120
   1418.00110     715.5458     451.7303   1418.00110     715.5458     451.7303
   1417.98584     714.9872     452.9185   1417.98584     714.9872     452.9185
   1417.97058     716.2059     453.3240   1417.97058     716.2059     453.3240
   1417.95532     716.8617     454.4759   1417.95532     716.8617     454.4759
   1417.94006     718.5640     455.2265   1417.94006     718.5640     455.2265
   1417.92480     718.9457     455.7801   1417.92480     718.9457     455.7801
   1417.90955     718.1562     456.9041   1417.90955     718.1562     456.9041
   1417.89429     720.7137     457.6762   1417.89429     720.7137     457.6762
   1417.87903     723.0427     458.3894   1417.87903     723.0427     458.3894
   1417.86377     722.8664     460.3670   1417.86377     722.8664     460.3670
   1417.84851     724.3151     461.4780   1417.84851     724.3151     461.4780
   1417.83325     724.7932     461.5075   1417.83325     724.7932     461.5075
   1417.81799     725.8017     462.6339   1417.81799     725.8017     462.6339
   1417.80273     726.2631     463.9924   1417.80273     726.2631     463.9924
   1417.78748     727.3766     464.6264   1417.78748     727.3766     464.6264
   1417.77222     728.2103     465.5905   1417.77222     728.2103     465.5905
   1417.75696     730.3506     467.0533   1417.75696     730.3506     467.0533
   1417.74170     730.3434     468.0519   1417.74170     730.3434     468.0519
   1417.72644     731.5403     468.3612   1417.72644     731.5403     468.3612
   1417.71118     732.5372     469.3694   1417.71118     732.5372     469.3694
   1417.69592     733.4233     470.6827   1417.69592     733.4233     470.6827
   1417.68066     733.5181     471.5022   1417.68066     733.5181     471.5022
   1417.66541     736.1972     472.5006   1417.66541     736.1972     472.5006
   1417.65015     736.2654     473.3302   1417.65015     736.2654     473.3302
   1417.63489     737.4908     474.4045   1417.63489     737.4908     474.4045
   1417.61963     737.9876     475.5117   1417.61963     737.9876     475.5117
   1417.60437     738.2947     476.3468   1417.60437     738.2947     476.3468
   1417.58911     739.3207     476.7328   1417.58911     739.3207     476.7328
   1417.57385     740.1281     478.3010   1417.57385     740.1281     478.3010
   1417.55859     741.4070     479.6990   1417.55859     741.4070     479.6990
   1417.54333     742.4096     480.1307   1417.54333     742.4096     480.1307
   1417.52808     743.2032     481.1968   1417.52808     743.2032     481.1968
   1417.51282     745.7307     482.7531   1417.51282     745.7307     482.7531
   1417.49756     745.4717     483.3977   1417.49756     745.4717     483.3977
   1417.48230     745.5526     484.6512   1417.48230     745.5526     484.6512
   1417.46704     746.5219     485.4395   1417.46704     746.5219     485.4395
   1417.45178     747.5148     486.2852   1417.45178     747.5148     486.2852
   1417.43652     750.0834     487.6136   1417.43652     750.0834     487.6136
   1417.42126     749.4725     488.8774   1417.42126     749.4725     488.8774
   1417.40601     750.1866     488.9594   1417.40601     750.1866     488.9594
   1417.39075     750.8761     490.0095   1417.39075     750.8761     490.0095
   1417.37549     751.8583     491.6265   1417.37549     751.8583     491.6265
   1417.36023     753.1806     492.2645   1417.36023     753.1806     492.2645
   1417.34497     754.7380     493.6527   1417.34497     754.7380     493.6527
   1417.32971     754.5465     494.4204   1417.32971     754.5465     494.4204
   1417.31445     755.2132     494.3380   1417.31445     755.2132     494.3380
   1417.29919     754.9329     495.6859   1417.29919     754.9329     495.6859
   1417.28394     756.2498     497.8297   1417.28394     756.2498     497.8297
   1417.26868     757.4962     498.2545   1417.26868     757.4962     498.2545
   1417.25342     758.7449     498.8767   1417.25342     758.7449     498.8767
   1417.23816     759.0524     499.7037   1417.23816     759.0524     499.7037
   1417.22290     760.5444     500.3559   1417.22290     760.5444     500.3559
   1417.20764     760.5717     501.6480   1417.20764     760.5717     501.6480
   1417.19238     761.5743     502.4872   1417.19238     761.5743     502.4872
   1417.17712     761.6165     503.2841   1417.17712     761.6165     503.2841
   1417.16187     762.3076     504.9852   1417.16187     762.3076     504.9852
   1417.14661     764.6605     504.6919   1417.14661     764.6605     504.6919
   1417.13135     764.9185     505.6222   1417.13135     764.9185     505.6222
   1417.11609     764.4965     507.1451   1417.11609     764.4965     507.1451
   1417.10083     765.9932     507.6160   1417.10083     765.9932     507.6160
   1417.08557     766.0612     508.5782   1417.08557     766.0612     508.5782
   1417.07031     766.1516     509.3902   1417.07031     766.1516     509.3902
   1417.05505     765.7232     509.8966   1417.05505     765.7232     509.8966
   1417.03979     769.2198     510.3596   1417.03979     769.2198     510.3596
   1417.02454     767.9964     511.1473   1417.02454     767.9964     511.1473
   1417.00928     770.0830     511.3881   1417.00928     770.0830     511.3881
   1416.99402     769.3888     513.3774   1416.99402     769.3888     513.3774
   1416.97876     771.0900     513.0386   1416.97876     771.0900     513.0386
   1416.96350     771.2825     514.2211   1416.96350     771.2825     514.2211
   1416.94824     772.3344     514.9651   1416.94824     772.3344     514.9651
   1416.93298     770.3587     516.2681   1416.93298     770.3587     516.2681
   1416.91772     772.1672     516.6794   1416.91772     772.1672     516.6794
   1416.90247     772.6465     517.0600   1416.90247     772.6465     517.0600
   1416.88721     773.1732     517.7729   1416.88721     773.1732     517.7729
   1416.87195     773.9571     517.8970   1416.87195     773.9571     517.8970
   1416.85669     774.2073     519.0315   1416.85669     774.2073     519.0315
   1416.84143     775.0271     519.2562   1416.84143     775.0271     519.2562
   1416.82617     774.9086     519.2222   1416.82617     774.9086     519.2222
   1416.81091     774.3921     519.5386   1416.81091     774.3921     519.5386
   1416.79565     775.9472     520.5856   1416.79565     775.9472     520.5856
   1416.78040     776.5911     521.1135   1416.78040     776.5911     521.1135
   1416.76514     776.7758     521.8207   1416.76514     776.7758     521.8207
   1416.74988     777.7219     521.9361   1416.74988     777.7219     521.9361
   1416.73462     776.8716     522.5934   1416.73462     776.8716     522.5934
   1416.71936     777.6516     522.5941   1416.71936     777.6516     522.5941
   1416.70410     777.7991     523.4240   1416.70410     777.7991     523.4240
   1416.68884     777.9797     523.4200   1416.68884     777.9797     523.4200
   1416.67358     777.9929     523.5522   1416.67358     777.9929     523.5522
   1416.65833     776.7209     524.6222   1416.65833     776.7209     524.6222
   1416.64307     777.6635     524.3774   1416.64307     777.6635     524.3774
   1416.62781     779.1691     524.2427   1416.62781     779.1691     524.2427
   1416.61255     779.2687     524.5573   1416.61255     779.2687     524.5573
   1416.59729     779.1400     525.5955   1416.59729     779.1400     525.5955
   1416.58203     778.3894     525.6346   1416.58203     778.3894     525.6346
   1416.56677     777.7855     525.3256   1416.56677     777.7855     525.3256
   1416.55151     778.8817     526.3625   1416.55151     778.8817     526.3625
   1416.53625     779.9318     526.0281   1416.53625     779.9318     526.0281
   1416.52100     779.1333     526.4903   1416.52100     779.1333     526.4903
   1416.50574     779.5397     526.3314   1416.50574     779.5397     526.3314
   1416.49048     780.4542     526.1174   1416.49048     780.4542     526.1174
   1416.47522     779.2090     526.8503   1416.47522     779.2090     526.8503
   1416.45996     777.8896     526.8041   1416.45996     777.8896     526.8041
   1416.44470     779.3326     526.5116   1416.44470     779.3326     526.5116
   1416.42944     779.3075     525.5801   1416.42944     779.3075     525.5801
   1416.41418     779.9265     525.9354   1416.41418     779.9265     525.9354
   1416.39893     778.3535     526.2397   1416.39893     778.3535     526.2397
   1416.38367     778.3925     525.6469   1416.38367     778.3925     525.6469
   1416.36841     779.7776     526.8855   1416.36841     779.7776     526.8855
   1416.35315     778.7458     526.3269   1416.35315     778.7458     526.3269
   1416.33789     777.8195     525.3828   1416.33789     777.8195     525.3828
   1416.32263     778.5387     525.5532   1416.32263     778.5387     525.5532
   1416.30737     778.8877     524.9332   1416.30737     778.8877     524.9332
   1416.29211     779.2969     525.4949   1416.29211     779.2969     525.4949
   1416.27686     778.3980     525.8169   1416.27686     778.3980     525.8169
   1416.26160     777.7556     525.2061   1416.26160     777.7556     525.2061
   1416.24634     777.3676     524.6808   1416.24634     777.3676     524.6808
   1416.23108     777.0825     525.0241   1416.23108     777.0825     525.0241
   1416.21582     776.1582     523.5986   1416.21582     776.1582     523.5986
   1416.20056     777.3640     523.3734   1416.20056     777.3640     523.3734
   1416.18530     776.7703     524.4078   1416.18530     776.7703     524.4078
   1416.17004     776.3979     523.8127   1416.17004     776.3979     523.8127
   1416.15479     775.5587     523.6639   1416.15479     775.5587     523.6639
   1416.13953     775.4954     522.5487   1416.13953     775.4954     522.5487
   1416.12427     775.4211     522.7801   1416.12427     775.4211     522.7801
   1416.10901     774.4161     521.9854   1416.10901     774.4161     521.9854
   1416.09375     773.5040     521.9337   1416.09375     773.5040     521.9337
   1416.07849     773.0942     521.3434   1416.07849     773.0942     521.3434
   1416.06323     772.5773     520.3997   1416.06323     772.5773     520.3997
   1416.04797     772.7474     520.4960   1416.04797     772.7474     520.4960
   1416.03271     771.4294     520.1378   1416.03271     771.4294     520.1378
   1416.01746     771.6362     520.2845   1416.01746     771.6362     520.2845
   1416.00220     772.0042     519.3612   1416.00220     772.0042     519.3612
   1415.98694     769.7094     518.7776   1415.98694     769.7094     518.7776
   1415.97168     770.5753     517.7720   1415.97168     770.5753     517.7720
   1415.95642     769.4280     517.5811   1415.95642     769.4280     517.5811
   1415.94116     769.2825     517.4892   1415.94116     769.2825     517.4892
   1415.92590     769.1081     517.6366   1415.92590     769.1081     517.6366
   1415.91064     768.3940     515.5652   1415.91064     768.3940     515.5652
   1415.89539     767.8568     516.5896   1415.89539     767.8568     516.5896
   1415.88013     767.5101     516.5105   1415.88013     767.5101     516.5105
   1415.86487     766.8815     515.7816   1415.86487     766.8815     515.7816
   1415.84961     766.6854     513.6346   1415.84961     766.6854     513.6346
   1415.83435     765.7722     514.3290   1415.83435     765.7722     514.3290
   1415.81909     764.4258     513.4542   1415.81909     764.4258     513.4542
   1415.80383     764.2544     513.0779   1415.80383     764.2544     513.0779
   1415.78857     764.7297     512.9579   1415.78857     764.7297     512.9579
   1415.77332     762.4427     511.4506   1415.77332     762.4427     511.4506
   1415.75806     761.9768     511.1628   1415.75806     761.9768     511.1628
   1415.74280     761.5948     511.4265   1415.74280     761.5948     511.4265
   1415.72754     761.7493     509.8337   1415.72754     761.7493     509.8337
   1415.71228     760.5245     510.4355   1415.71228     760.5245     510.4355
   1415.69702     761.3110     509.0472   1415.69702     761.3110     509.0472
   1415.68176     759.8148     509.3076   1415.68176     759.8148     509.3076
   1415.66650     758.6750     509.0267   1415.66650     758.6750     509.0267
   1415.65125     757.8583     507.4295   1415.65125     757.8583     507.4295
   1415.63599     757.1595     507.7658   1415.63599     757.1595     507.7658
   1415.62073     755.7761     506.7532   1415.62073     755.7761     506.7532
   1415.60547     756.4061     505.1363   1415.60547     756.4061     505.1363
   1415.59021     753.6452     504.5864   1415.59021     753.6452     504.5864
   1415.57495     753.3505     504.7126   1415.57495     753.3505     504.7126
   1415.55969     753.0443     503.1544   1415.55969     753.0443     503.1544
   1415.54443     753.4832     503.2383   1415.54443     753.4832     503.2383
   1415.52917     750.7537     503.0624   1415.52917     750.7537     503.0624
   1415.51392     748.5204     502.5263   1415.51392     748.5204     502.5263
   1415.49866     748.1677     500.9785   1415.49866     748.1677     500.9785
   1415.48340     748.5885     500.3090   1415.48340     748.5885     500.3090
   1415.46814     747.1673     499.3508   1415.46814     747.1673     499.3508
   1415.45288     746.9963     499.3030   1415.45288     746.9963     499.3030
   1415.43762     744.4098     498.3102   1415.43762     744.4098     498.3102
   1415.42236     745.4293     496.9713   1415.42236     745.4293     496.9713
   1415.40710     743.0616     496.6319   1415.40710     743.0616     496.6319
   1415.39185     743.2363     495.9613   1415.39185     743.2363     495.9613
   1415.37659     741.9506     495.5262   1415.37659     741.9506     495.5262
   1415.36133     739.6614     494.7290   1415.36133     739.6614     494.7290
   1415.34607     740.7242     493.9787   1415.34607     740.7242     493.9787
   1415.33081     738.2942     492.2378   1415.33081     738.2942     492.2378
   1415.31555     737.6753     491.9056   1415.31555     737.6753     491.9056
   1415.30029     736.6520     491.5647   1415.30029     736.6520     491.5647
   1415.28503     735.0991     490.9761   1415.28503     735.0991     490.9761
   1415.26978     733.6190     490.1835   1415.26978     733.6190     490.1835
   1415.25452     732.9827     489.5471   1415.25452     732.9827     489.5471
   1415.23926     731.7472     488.6869   1415.23926     731.7472     488.6869
   1415.22400     731.3706     487.4747   1415.22400     731.3706     487.4747
   1415.20874     728.4996     486.9553   1415.20874     728.4996     486.9553
   1415.19348     727.4090     486.3230   1415.19348     727.4090     486.3230
   1415.17822     726.4173     485.4742   1415.17822     726.4173     485.4742
   1415.16296     726.3435     484.4515   1415.16296     726.3435     484.4515
   1415.14771     724.6813     483.9475   1415.14771     724.6813     483.9475
   1415.13245     723.1855     482.3926   1415.13245     723.1855     482.3926
   1415.11719     723.2852     481.5253   1415.11719     723.2852     481.5253
   1415.10193     720.1487     480.0126   1415.10193     720.1487     480.0126
   1415.08667     719.2874     479.4883   1415.08667     719.2874     479.4883
   1415.07141     717.9503     478.8935   1415.07141     717.9503     478.8935
   1415.05615     715.7468     477.9606   1415.05615     715.7468     477.9606
   1415.04089     714.2498     476.9314   1415.04089     714.2498     476.9314
   1415.02563     713.6640     476.0094   1415.02563     713.6640     476.0094
   1415.01038     712.5522     474.5443   1415.01038     712.5522     474.5443
   1414.99512     710.3192     473.4500   1414.99512     710.3192     473.4500
   1414.97986     708.6227     472.5194   1414.97986     708.6227     472.5194
   1414.96460     707.8693     471.4898   1414.96460     707.8693     471.4898
   1414.94934     707.3402     470.4217   1414.94934     707.3402     470.4217
   1414.93408     704.3400     469.3125   1414.93408     704.3400     469.3125
   1414.91882     702.4418     468.8414   1414.91882     702.4418     468.8414
   1414.90356     701.2432     467.7558   1414.90356     701.2432     467.7558
   1414.88831     700.0624     466.8854   1414.88831     700.0624     466.8854
   1414.87305     698.0097     464.8654   1414.87305     698.0097     464.8654
   1414.85779     696.9656     463.9871   1414.85779     696.9656     463.9871
   1414.84253     694.7738     463.0070   1414.84253     694.7738     463.0070
   1414.82727     692.3297     461.6804   1414.82727     692.3297     461.6804
   1414.81201     691.9722     460.2765   1414.81201     691.9722     460.2765
   1414.79675     689.4718     459.9580   1414.79675     689.4718     459.9580
   1414.78149     688.0710     458.1420   1414.78149     688.0710     458.1420
   1414.76624     686.4761     456.8528   1414.76624     686.4761     456.8528
   1414.75098     684.3989     456.1794   1414.75098     684.3989     456.1794
   1414.73572     682.4100     455.2274   1414.73572     682.4100     455.2274
   1414.72046     681.1804     453.1971   1414.72046     681.1804     453.1971
   1414.70520     679.1039     453.3049   1414.70520     679.1039     453.3049
   1414.68994     676.3990     451.5795   1414.68994     676.3990     451.5795
   1414.67468     674.6218     450.6316   1414.67468     674.6218     450.6316
   1414.65942     672.9641     449.1359   1414.65942     672.9641     449.1359
   1414.64417     670.8726     447.5102   1414.64417     670.8726     447.5102
   1414.62891     669.5805     446.2500   1414.62891     669.5805     446.2500
   1414.61365     666.7145     445.0933   1414.61365     666.7145     445.0933
   1414.59839     665.2460     443.5088   1414.59839     665.2460     443.5088
   1414.58313     662.3232     442.2438   1414.58313     662.3232     442.2438
   1414.56787     660.5705     440.9508   1414.56787     660.5705     440.9508
   1414.55261     658.7453     440.2376   1414.55261     658.7453     440.2376
   1414.53735     657.2528     438.2582   1414.53735     657.2528     438.2582
   1414.52209     654.7189     436.9099   1414.52209     654.7189     436.9099
   1414.50684     652.5366     434.9026   1414.50684     652.5366     434.9026
   1414.49158     649.3865     434.7072   1414.49158     649.3865     434.7072
   1414.47632     647.9162     432.2799   1414.47632     647.9162     432.2799
   1414.46106     646.2202     431.4528   1414.46106     646.2202     431.4528
   1414.44580     644.2651     430.2459   1414.44580     644.2651     430.2459
   1414.43054     641.6633     429.2427   1414.43054     641.6633     429.2427
   1414.41528     639.7139     427.9993   1414.41528     639.7139     427.9993
   1414.40002     637.5865     425.7952   1414.40002     637.5865     425.7952
   1414.38477     635.3010     424.8039   1414.38477     635.3010     424.8039
   1414.36951     633.1807     423.2142   1414.36951     633.1807     423.2142
   1414.35425     629.2633     421.4957   1414.35425     629.2633     421.4957
   1414.33899     627.6862     419.7003   1414.33899     627.6862     419.7003
   1414.32373     624.4777     418.3577   1414.32373     624.4777     418.3577
   1414.30847     623.6778     416.7181   1414.30847     623.6778     416.7181
   1414.29321     620.8204     414.8188   1414.29321     620.8204     414.8188
   1414.27795     619.1074     413.8488   1414.27795     619.1074     413.8488
   1414.26270     616.0689     412.9598   1414.26270     616.0689     412.9598
   1414.24744     614.1789     410.8474   1414.24744     614.1789     410.8474
   1414.23218     610.9639     409.8259   1414.23218     610.9639     409.8259
   1414.21692     607.9908     407.5986   1414.21692     607.9908     407.5986
   1414.20166     605.9191     406.1529   1414.20166     605.9191     406.1529
   1414.18640     603.4249     404.4207   1414.18640     603.4249     404.4207
   1414.17114     601.0995     402.8836   1414.17114     601.0995     402.8836
   1414.15588     597.8368     401.4033   1414.15588     597.8368     401.4033
   1414.14062     595.5074     399.7892   1414.14062     595.5074     399.7892
   1414.12537     592.7883     398.7028   1414.12537     592.7883     398.7028
   1414.11011     590.2911     397.1494   1414.11011     590.2911     397.1494
   1414.09485     587.5258     394.6800   1414.09485     587.5258     394.6800
   1414.07959     584.4852     392.9604   1414.07959     584.4852     392.9604
   1414.06433     582.9597     391.6727   1414.06433     582.9597     391.6727
   1414.04907     579.5887     389.4973   1414.04907     579.5887     389.4973
   1414.03381     578.0152     388.3556   1414.03381     578.0152     388.3556
   1414.01855     575.1918     387.1606   1414.01855     575.1918     387.1606
   1414.00330     596.0940     391.9264   1414.00330     596.0940     391.9264
   1413.98804     571.6261     384.4565   1413.98804     571.6261     384.4565
   1413.97278     567.2406     382.4439   1413.97278     567.2406     382.4439
   1413.95752     563.8784     380.2385   1413.95752     563.8784     380.2385
   1413.94226     560.6065     377.9313   1413.94226     560.6065     377.9313
   1413.92700     558.3167     376.5981   1413.92700     558.3167     376.5981
   1413.91174     556.1030     374.9160   1413.91174     556.1030     374.9160
   1413.89648     552.9465     373.1080   1413.89648     552.9465     373.1080
   1413.88123     550.3353     371.4709   1413.88123     550.3353     371.4709
   1413.86597     547.0491     369.7990   1413.86597     547.0491     369.7990
   1413.85071     544.6989     368.0983   1413.85071     544.6989     368.0983
   1413.83545     541.4762     367.3252   1413.83545     541.4762     367.3252
   1413.82019     538.4463     364.7895   1413.82019     538.4463     364.7895
   1413.80493     537.0798     363.5239   1413.80493     537.0798     363.5239
   1413.78967     533.1177     361.4260   1413.78967     533.1177     361.4260
   1413.77441     531.1555     359.4088   1413.77441     531.1555     359.4088
   1413.75916     528.4025     358.3975   1413.75916     528.4025     358.3975
   1413.74390     524.7164     356.0482   1413.74390     524.7164     356.0482
   1413.72864     522.5335     354.0337   1413.72864     522.5335     354.0337
   1413.71338     519.7129     352.9749   1413.71338     519.7129     352.9749
   1413.69812     516.0630     351.3177   1413.69812     516.0630     351.3177
   1413.68286     513.2407     348.9755   1413.68286     513.2407     348.9755
   1413.66760     510.9708     347.3663   1413.66760     510.9708     347.3663
   1413.65234     508.5699     345.4730   1413.65234     508.5699     345.4730
   1413.63708     505.1878     344.4651   1413.63708     505.1878     344.4651
   1413.62183     502.9108     341.9822   1413.62183     502.9108     341.9822
   1413.60657     500.1693     340.8267   1413.60657     500.1693     340.8267
   1413.59131     496.4611     339.3001   1413.59131     496.4611     339.3001
   1413.57605     494.4590     337.4655   1413.57605     494.4590     337.4655
   1413.56079     491.6524     335.3510   1413.56079     491.6524     335.3510
   1413.54553     488.5069     334.2123   1413.54553     488.5069     334.2123
   1413.53027     485.6703     332.6392   1413.53027     485.6703     332.6392
   1413.51501     483.6445     330.6553   1413.51501     483.6445     330.6553
   1413.49976     481.0337     329.1101   1413.49976     481.0337     329.1101
   1413.48450     478.1309     327.3431   1413.48450     478.1309     327.3431
   1413.46924     475.8094     325.8240   1413.46924     475.8094     325.8240
   1413.45398     471.4530     324.1671   1413.45398     471.4530     324.1671
   1413.43872     469.6492     322.9611   1413.43872     469.6492     322.9611
   1413.42346     467.5190     320.9176   1413.42346     467.5190     320.9176
   1413.40820     463.8342     319.7657   1413.40820     463.8342     319.7657
   1413.39294     461.5055     317.5530   1413.39294     461.5055     317.5530
   1413.37769     458.6494     316.3235   1413.37769     458.6494     316.3235
   1413.36243     457.1486     314.5892   1413.36243     457.1486     314.5892
   1413.34717     453.7370     312.7462   1413.34717     453.7370     312.7462
   1413.33191     451.5397     311.5974   1413.33191     451.5397     311.5974
   1413.31665     449.1794     309.8614   1413.31665     449.1794     309.8614
   1413.30139     446.4689     308.2017   1413.30139     446.4689     308.2017
   1413.28613     443.2597     307.0323   1413.28613     443.2597     307.0323
   1413.27087     441.2380     305.5139   1413.27087     441.2380     305.5139
   1413.25562     439.0258     303.7546   1413.25562     439.0258     303.7546
   1413.24036     435.5795     302.4258   1413.24036     435.5795     302.4258
   1413.22510     433.8867     301.2741   1413.22510     433.8867     301.2741
   1413.20984     431.0179     299.8081   1413.20984     431.0179     299.8081
   1413.19458     428.8463     297.8764   1413.19458     428.8463     297.8764
   1413.17932     425.8264     296.9807   1413.17932     425.8264     296.9807
   1413.16406     424.0680     295.5104   1413.16406     424.0680     295.5104
   1413.14880     421.6716     293.9459   1413.14880     421.6716     293.9459
   1413.13354     419.9106     292.5910   1413.13354     419.9106     292.5910
   1413.11829     417.5697     291.5600   1413.11829     417.5697     291.5600
   1413.10303     414.5511     290.2035   1413.10303     414.5511     290.2035
   1413.08777     412.7845     288.8729   1413.08777     412.7845     288.8729
   1413.07251     410.1830     287.3250   1413.07251     410.1830     287.3250
   1413.05725     408.1154     286.3222   1413.05725     408.1154     286.3222
   1413.04199     406.5002     284.9500   1413.04199     406.5002     284.9500
   1413.02673     403.8198     283.7305   1413.02673     403.8198     283.7305
   1413.01147     402.3827     282.4153   1413.01147     402.3827     282.4153
   1412.99622     399.7820     281.4304   1412.99622     399.7820     281.4304
   1412.98096     398.3488     280.5081   1412.98096     398.3488     280.5081
   1412.96570     396.8510     278.9028   1412.96570     396.8510     278.9028
   1412.95044     394.5593     277.9637   1412.95044     394.5593     277.9637
   1412.93518     392.7106     277.1009   1412.93518     392.7106     277.1009
   1412.91992     390.7787     275.9042   1412.91992     390.7787     275.9042
   1412.90466     388.6563     274.5257   1412.90466     388.6563     274.5257
   1412.88940     387.8474     273.9242   1412.88940     387.8474     273.9242
   1412.87415     384.9734     272.7272   1412.87415     384.9734     272.7272
   1412.85889     383.4471     272.2786   1412.85889     383.4471     272.2786
   1412.84363     382.7468     271.2278   1412.84363     382.7468     271.2278
   1412.82837     381.2757     270.4044   1412.82837     381.2757     270.4044
   1412.81311     379.7055     269.6861   1412.81311     379.7055     269.6861
   1412.79785     377.8216     268.8259   1412.79785     377.8216     268.8259
   1412.78259     376.3179     268.4380   1412.78259     376.3179     268.4380
   1412.76733     374.7450     267.3472   1412.76733     374.7450     267.3472
   1412.75208     374.1858     266.8019   1412.75208     374.1858     266.8019
   1412.73682     372.0302     265.6703   1412.73682     372.0302     265.6703
   1412.72156     370.8900     264.9179   1412.72156     370.8900     264.9179
   1412.70630     369.9199     264.6018   1412.70630     369.9199     264.6018
   1412.69104     368.6653     263.8780   1412.69104     368.6653     263.8780
   1412.67578     367.8700     263.4913   1412.67578     367.8700     263.4913
   1412.66052     366.5779     262.7856   1412.66052     366.5779     262.7856
   1412.64526     365.3841     261.9238   1412.64526     365.3841     261.9238
   1412.63000     364.3832     262.0418   1412.63000     364.3832     262.0418
   1412.61475     362.7880     261.1051   1412.61475     362.7880     261.1051
   1412.59949     362.6376     261.3509   1412.59949     362.6376     261.3509
   1412.58423     361.8737     260.4354   1412.58423     361.8737     260.4354
   1412.56897     360.8092     260.2516   1412.56897     360.8092     260.2516
   1412.55371     360.3957     259.7705   1412.55371     360.3957     259.7705
   1412.53845     359.8809     259.9023   1412.53845     359.8809     259.9023
   1412.52319     359.0736     259.4697   1412.52319     359.0736     259.4697
   1412.50793     358.2029     259.5572   1412.50793     358.2029     259.5572
   1412.49268     358.0156     259.2826   1412.49268     358.0156     259.2826
   1412.47742     357.7829     259.2851   1412.47742     357.7829     259.2851
   1412.46216     357.3851     259.4212   1412.46216     357.3851     259.4212
   1412.44690     356.8685     258.9384   1412.44690     356.8685     258.9384
   1412.43164     356.1576     258.7583   1412.43164     356.1576     258.7583
   1412.41638     356.0116     259.1316   1412.41638     356.0116     259.1316
   1412.40112     356.1173     258.9803   1412.40112     356.1173     258.9803
   1412.38586     356.1363     259.2507   1412.38586     356.1363     259.2507
   1412.37061     355.4471     259.6920   1412.37061     355.4471     259.6920
   1412.35535     355.3099     259.5032   1412.35535     355.3099     259.5032
   1412.34009     355.2415     259.7964   1412.34009     355.2415     259.7964
   1412.32483     355.3339     260.4009   1412.32483     355.3339     260.4009
   1412.30957     354.9266     260.2098   1412.30957     354.9266     260.2098
   1412.29431     355.6760     260.7270   1412.29431     355.6760     260.7270
   1412.27905     355.6840     261.2595   1412.27905     355.6840     261.2595
   1412.26379     356.4911     262.0280   1412.26379     356.4911     262.0280
   1412.24854     356.4910     261.9549   1412.24854     356.4910     261.9549
   1412.23328     357.0349     263.1143   1412.23328     357.0349     263.1143
   1412.21802     357.2122     263.0941   1412.21802     357.2122     263.0941
   1412.20276     357.7359     263.5938   1412.20276     357.7359     263.5938